time,f1,b1,f2,b2,f3,b3,f1p,f2p,f3p,f0,intensity,harmonicity
0.025980,346.4,136.3,1826.8,105.5,2352.8,107.5,453.2,1808.3,2268.5,249,39.9,31.8
0.027980,389.6,149.4,1823.1,91.8,2347.0,93.1,454,1808.8,2267.9,248.8,41,31.2
0.029980,432.0,131.7,1818.6,90.0,2341.4,89.4,455.3,1809.7,2266.9,248.6,41.8,23.4
0.031980,459.1,109.3,1813.3,100.6,2334.8,94.8,457.1,1810.9,2265.5,248.4,42.5,14.3
0.033980,476.6,91.5,1806.9,126.7,2326.5,110.4,459.4,1812.3,2263.8,248.2,43.1,9.9
0.035980,487.0,79.9,1802.5,173.0,2315.4,140.0,462.1,1814,2261.8,248,43.6,10.4
0.037980,493.0,73.8,1805.1,243.4,2296.5,187.7,465.1,1816,2259.6,247.9,44,11.9
0.039980,497.4,72.2,1820.9,355.6,2256.2,254.7,468.5,1818.1,2257.2,247.7,44.4,13.9
0.041980,500.6,73.8,1844.2,504.3,2196.3,291.2,472.2,1820.4,2254.6,247.5,44.8,16.1
0.043980,503.3,76.7,1845.4,647.8,2151.8,262.1,476,1822.7,2252,247.3,45.2,18
0.045980,505.7,78.2,1828.0,663.6,2145.0,233.2,480,1825,2249.5,247.1,45.5,19.6
0.047980,507.7,78.0,1820.4,593.6,2154.1,223.1,484.1,1827.3,2247,246.9,45.8,21.4
0.049980,509.1,76.7,1820.4,506.2,2168.5,220.7,488.1,1829.5,2244.8,246.7,46.1,23.2
0.051980,509.6,74.5,1821.6,437.3,2181.3,221.3,492.1,1831.5,2242.7,246.4,46.4,24.6
0.053980,509.6,71.4,1822.4,382.7,2192.7,223.2,495.9,1833.2,2241,246.2,46.6,25.6
0.055980,509.3,68.0,1824.3,344.6,2203.2,226.0,499.5,1834.6,2239.6,246,46.9,26.1
0.057980,508.9,64.9,1827.7,322.1,2213.1,228.9,502.9,1835.6,2238.7,245.7,47.2,26
0.059980,508.4,61.7,1832.4,311.1,2221.3,231.9,505.9,1836.1,2238.3,245.5,47.5,25.8
0.061980,507.9,58.7,1837.3,309.3,2225.1,235.6,508.5,1836,2238.3,245.2,47.7,25.5
0.063980,507.4,55.8,1841.5,310.5,2226.0,240.7,510.7,1835.2,2239,244.9,48,25.4
0.065980,506.9,53.1,1842.8,307.3,2227.0,245.3,512.5,1833.7,2240.2,244.6,48.2,25.8
0.067980,506.2,50.8,1839.8,295.8,2230.6,245.8,513.8,1831.5,2242.1,244.3,48.4,26.3
0.069980,505.3,48.4,1833.3,277.2,2237.6,241.0,514.5,1828.3,2244.5,243.9,48.7,26.8
0.071980,504.2,46.0,1825.5,258.9,2245.9,233.5,514.7,1824.2,2247.6,243.5,48.9,27.2
0.073980,502.8,43.3,1815.3,242.1,2255.7,223.9,514.4,1819.1,2251.2,243.1,49.1,27.2
0.075980,501.0,40.3,1801.3,227.2,2266.3,210.9,513.6,1813,2255.4,242.7,49.3,26.8
0.077980,499.1,37.4,1784.2,212.9,2276.7,194.2,512.3,1805.8,2260.1,242.2,49.6,25.9
0.079980,497.0,34.6,1765.6,196.3,2287.6,173.8,510.4,1797.5,2265.3,241.7,49.9,24.9
0.081980,495.1,32.2,1751.3,179.4,2298.0,153.6,508.1,1788,2270.9,241.2,50.2,24
0.083980,493.3,29.7,1741.6,163.1,2309.4,133.1,505.5,1777.4,2276.9,240.7,50.5,23.4
0.085980,491.7,27.3,1735.4,150.0,2320.9,114.1,502.4,1765.6,2283.1,240.1,50.8,23.2
0.087980,490.5,25.0,1729.9,140.2,2331.0,97.7,499,1752.6,2289.6,239.5,51.1,23.2
0.089980,489.2,22.7,1722.7,132.2,2340.2,82.9,495.4,1738.6,2296.3,238.8,51.4,23.3
0.091980,487.8,20.4,1713.5,128.2,2347.6,71.3,491.5,1723.4,2303,238.2,51.7,23.5
0.093980,486.1,18.3,1701.2,129.3,2353.8,61.8,487.5,1707.1,2309.7,237.4,52.1,23.6
0.095980,484.3,16.5,1686.3,136.6,2358.1,55.4,483.5,1689.9,2316.3,236.7,52.4,23.9
0.097980,482.6,15.5,1671.7,148.2,2359.8,53.0,479.4,1671.7,2322.7,235.9,52.7,24.2
0.099980,481.0,14.8,1661.0,160.2,2358.1,54.8,475.4,1652.7,2328.9,235.1,53,24.5
0.101980,479.3,14.4,1657.6,167.3,2353.2,59.6,471.6,1632.9,2334.8,234.2,53.3,24.7
0.103980,477.5,14.1,1657.6,172.9,2346.2,66.0,467.9,1612.4,2340.3,233.3,53.5,24.5
0.105980,475.4,13.8,1655.4,184.7,2338.8,72.9,464.5,1591.4,2345.4,232.4,53.8,24.1
0.107980,473.2,13.8,1647.3,207.2,2331.9,80.9,461.4,1570,2350.1,231.4,54,23.3
0.109980,470.6,14.0,1629.8,241.1,2324.5,91.9,458.6,1548.2,2354.3,230.4,54.2,22.4
0.111980,467.8,14.4,1604.5,268.7,2318.2,103.2,456.3,1526.3,2357.9,229.4,54.4,21.5
0.113980,464.9,14.9,1572.5,277.6,2315.2,110.9,454.4,1504.4,2361,228.3,54.6,20.8
0.115980,462.3,15.4,1536.9,269.1,2317.6,110.6,453,1482.5,2363.6,227.2,54.8,20.3
0.117980,460.3,16.2,1498.2,257.2,2323.8,106.6,452.1,1460.9,2365.6,226,55.1,19.8
0.119980,458.7,17.5,1452.8,250.1,2333.2,107.0,451.7,1439.7,2367.1,224.8,55.4,19.4
0.121980,457.5,19.0,1408.7,245.8,2343.7,112.8,451.8,1419,2368.1,223.6,55.6,19.1
0.123980,456.8,20.8,1366.2,238.9,2353.4,120.2,452.4,1399,2368.6,222.3,55.9,19
0.125980,456.3,22.6,1329.7,232.1,2358.6,124.6,453.5,1379.7,2368.7,221,56.2,19.1
0.127980,455.5,24.4,1299.4,229.2,2359.6,125.2,455.2,1361.4,2368.5,219.7,56.4,19.4
0.129980,454.5,26.3,1271.4,227.0,2360.2,122.6,457.3,1344.1,2367.9,218.3,56.6,19.8
0.131980,453.8,28.3,1250.6,218.5,2362.4,116.5,459.8,1327.9,2367.1,216.9,56.7,20.1
0.133980,453.7,30.9,1237.1,204.1,2366.8,109.0,462.8,1313,2366,215.4,56.8,20.1
0.135980,454.2,34.1,1230.4,190.8,2371.7,106.7,466.1,1299.3,2364.9,213.9,56.8,19.8
0.137980,455.0,37.7,1228.2,182.2,2373.8,114.8,469.7,1287,2363.7,212.4,56.8,19.4
0.139980,456.1,42.4,1227.6,180.3,2372.6,141.9,473.6,1276.2,2362.6,210.9,56.6,18.9
0.141980,457.3,48.6,1226.2,187.1,2368.9,197.7,477.8,1266.7,2361.5,209.3,56.4,18.1
0.143980,459.2,58.3,1222.4,202.9,2362.4,308.1,482.1,1258.8,2360.6,207.7,56.1,17
0.145980,462.8,73.2,1218.2,222.6,2352.0,475.1,486.5,1252.3,2359.9,206,55.6,15.3
0.147980,470.7,94.9,1221.2,230.6,2347.1,591.4,490.9,1247.2,2359.5,204.4,55.2,13
0.149980,487.7,123.7,1238.2,213.6,2359.6,544.7,495.4,1243.6,2359.4,202.7,54.8,10.7
0.151980,510.1,141.9,1263.6,176.7,2371.5,418.7,499.8,1241.3,2359.7,201,54.5,8.6
0.153980,525.9,138.7,1287.7,131.8,2373.7,304.5,504.1,1240.3,2360.4,199.3,54.4,7.4
0.155980,528.9,125.7,1303.2,95.1,2370.3,230.1,508.2,1240.6,2361.6,197.7,54.4,7.2
0.157980,527.8,115.5,1310.7,72.3,2367.5,187.1,512.2,1241.9,2363.2,196,54.6,7.7
0.159980,528.8,109.8,1312.8,59.2,2369.9,158.3,515.9,1244.2,2365.2,194.3,54.7,8.6
0.161980,532.5,108.5,1310.9,54.4,2378.9,138.0,519.3,1247.5,2367.8,192.6,54.8,9.4
0.163980,537.0,109.7,1306.2,54.2,2390.3,119.7,522.4,1251.4,2370.7,191,54.7,10
0.165980,539.4,110.8,1300.8,56.4,2397.4,105.6,525.2,1256.1,2374.2,189.3,54.6,10.2
0.167980,539.1,109.9,1296.0,59.0,2398.7,98.5,527.6,1261.2,2378,187.7,54.4,10.3
0.169980,538.4,106.2,1291.6,61.8,2396.6,97.6,529.6,1266.6,2382.3,186.1,54.2,10.3
0.171980,538.7,100.2,1286.9,64.9,2394.4,102.0,531.3,1272.2,2386.9,184.6,54,10.2
0.173980,539.1,92.4,1281.1,69.2,2394.0,111.2,532.6,1277.9,2391.7,183,53.9,10.1
0.175980,537.6,84.9,1276.1,74.3,2395.9,120.5,533.5,1283.5,2396.9,181.5,53.8,9.8
0.177980,533.4,78.7,1275.3,78.9,2400.6,122.4,534,1288.9,2402.2,180.1,53.8,9.4
0.179980,527.3,73.0,1279.8,82.4,2407.8,115.7,534.1,1293.9,2407.6,178.7,53.9,9
0.181980,521.9,68.5,1287.4,82.8,2414.8,107.3,533.9,1298.5,2413.2,177.4,54.1,8.7
0.183980,518.6,65.1,1295.1,78.1,2421.1,102.3,533.4,1302.5,2418.7,176.1,54.4,8.8
0.185980,517.4,62.4,1299.6,69.8,2426.2,103.6,532.6,1305.8,2424.2,174.8,54.7,9.4
0.187980,516.9,58.8,1300.7,61.4,2430.5,109.5,531.4,1308.3,2429.6,173.6,55,10.4
0.189980,516.4,53.5,1299.6,54.1,2436.0,116.5,530,1310.1,2434.8,172.4,55.4,11.5
0.191980,516.7,48.3,1297.5,49.2,2442.5,121.1,528.4,1311,2439.9,171.3,55.6,12.4
0.193980,517.5,44.4,1294.5,45.5,2448.2,123.0,526.5,1311,2444.7,170.3,55.8,13
0.195980,518.1,42.8,1291.0,42.3,2449.9,122.4,524.5,1310,2449.2,169.2,55.9,12.9
0.197980,518.6,43.3,1287.6,39.4,2447.1,122.3,522.4,1308.2,2453.3,168.3,55.9,12.5
0.199980,518.8,45.1,1284.6,36.7,2441.5,125.9,520.1,1305.4,2457.2,167.4,55.8,11.9
0.201980,517.6,47.1,1282.7,34.7,2438.6,133.8,517.8,1301.8,2460.6,166.5,55.6,11.4
0.203980,514.0,49.3,1280.8,33.8,2441.1,146.9,515.4,1297.4,2463.7,165.7,55.3,11.2
0.205980,509.5,52.2,1277.8,34.6,2447.8,162.8,513,1292.3,2466.4,164.9,54.9,11.5
0.207980,506.8,56.2,1273.1,37.1,2453.7,173.7,510.6,1286.5,2468.7,164.1,54.4,12
0.209980,507.1,63.2,1266.2,41.2,2457.0,175.5,508.3,1280.1,2470.7,163.4,53.8,12.7
0.211980,509.6,73.5,1258.7,46.1,2458.8,169.7,506,1273.3,2472.3,162.8,53.2,13.3
0.213980,513.0,86.4,1252.5,50.7,2460.5,162.1,503.7,1266.1,2473.6,162.2,52.6,13.7
0.215980,516.5,98.3,1249.2,54.8,2461.8,160.4,501.6,1258.7,2474.5,161.6,52,14
0.217980,519.6,106.7,1246.4,59.9,2463.4,167.8,499.5,1251.1,2475.2,161,51.4,14.2
0.219980,521.9,111.5,1242.1,67.6,2468.1,182.2,497.6,1243.6,2475.6,160.5,50.9,14.2
0.221980,522.5,114.6,1236.9,77.2,2476.9,194.9,495.8,1236.2,2475.8,160,50.3,14.2
0.223980,520.7,119.9,1230.6,89.7,2485.1,201.6,494.2,1229.1,2475.9,159.6,49.8,14
0.225980,514.6,127.4,1224.9,103.1,2482.3,196.2,492.7,1222.3,2475.8,159.2,49.2,13.7
0.227980,504.7,134.4,1224.7,114.1,2470.5,177.6,491.3,1216.1,2475.7,158.8,48.5,13.2
0.229980,492.6,141.1,1230.6,126.6,2460.2,156.4,490.2,1210.4,2475.4,158.4,47.8,12.6
0.231980,482.7,147.8,1235.9,145.5,2456.9,146.7,489.2,1205.5,2475.2,158.1,47.1,11.9
0.233980,476.1,154.9,1234.9,175.4,2460.3,151.3,488.4,1201.3,2474.9,157.8,46.3,11.2
0.235980,471.7,162.8,1224.8,213.8,2472.3,175.2,487.7,1198,2474.7,157.5,45.5,13.7
0.237980,467.1,173.1,1208.6,252.5,2494.8,222.0,487.3,1195.6,2474.5,157.3,44.6,19.4
0.239980,463.0,188.9,1192.5,291.5,2525.9,285.9,487,1194.1,2474.4,157,43.6,23.4
0.241980,458.1,208.1,1173.4,343.6,2538.6,345.6,486.9,1193.6,2474.4,156.8,42.5,20.9
