time,f1,b1,f2,b2,f3,b3,f1p,f2p,f3p,f0,intensity,harmonicity
0.025016,319.7,62.4,1855.2,168.4,2356.2,207.9,353.4,1804.3,2356,183,43.9,15
0.027016,327.8,63.7,1872.7,156.6,2347.0,261.2,353.5,1804.6,2356.5,183.1,44.5,16.7
0.029016,338.5,66.9,1879.6,144.3,2342.9,248.4,353.8,1805,2357.3,183.2,45,18
0.031016,349.1,67.5,1868.1,147.1,2348.8,189.7,354.2,1805.6,2358.4,183.3,45.5,18.5
0.033016,356.0,64.0,1841.2,169.7,2359.1,142.7,354.6,1806.3,2359.9,183.4,46.1,18.8
0.035016,359.0,58.9,1806.2,195.3,2366.8,116.4,355.2,1807.2,2361.6,183.5,46.6,19
0.037016,360.8,54.0,1783.3,198.1,2368.4,107.2,355.8,1808.1,2363.5,183.6,47.1,19.3
0.039016,362.3,49.8,1781.9,187.2,2366.2,109.7,356.5,1809.1,2365.6,183.7,47.5,19.8
0.041016,363.7,46.5,1792.4,181.9,2367.2,113.5,357.3,1810,2367.9,183.7,47.9,20.5
0.043016,365.4,44.0,1804.7,184.9,2373.2,111.3,358.1,1810.9,2370.3,183.8,48.4,21.2
0.045016,367.2,42.3,1810.9,195.4,2380.2,103.6,358.9,1811.8,2372.8,183.8,48.7,22
0.047016,368.9,40.9,1806.8,213.0,2386.0,94.1,359.8,1812.5,2375.3,183.9,49.1,22.7
0.049016,369.9,39.3,1795.3,237.2,2391.4,86.4,360.6,1813,2377.8,183.9,49.5,23.3
0.051016,370.1,37.0,1789.5,255.6,2395.7,83.9,361.5,1813.3,2380.3,183.9,49.8,23.8
0.053016,369.9,34.3,1795.8,253.9,2398.3,85.1,362.3,1813.3,2382.6,183.9,50.1,24.3
0.055016,369.7,31.5,1805.1,233.8,2398.9,85.9,363.2,1812.9,2384.7,183.9,50.5,24.7
0.057016,369.3,28.8,1807.0,212.8,2397.9,84.4,364,1812.2,2386.7,183.8,50.8,25.2
0.059016,369.1,26.4,1799.8,202.8,2395.5,82.5,364.7,1811,2388.4,183.8,51,25.6
0.061016,368.9,24.4,1789.5,210.6,2392.7,81.7,365.4,1809.4,2389.8,183.7,51.3,26.1
0.063016,368.6,22.6,1781.2,238.9,2390.5,80.6,366,1807.2,2390.9,183.6,51.5,26.6
0.065016,368.3,21.1,1775.0,285.9,2389.6,76.9,366.5,1804.5,2391.6,183.5,51.8,27
0.067016,368.1,20.0,1765.6,338.5,2389.3,71.2,367,1801.2,2392,183.4,52,27.3
0.069016,368.1,19.2,1747.6,381.5,2388.1,65.7,367.3,1797.2,2392,183.3,52.2,27.4
0.071016,368.1,18.5,1727.3,407.6,2384.5,64.1,367.6,1792.7,2391.6,183.1,52.4,27.3
0.073016,368.1,17.9,1716.7,430.4,2377.6,69.1,367.8,1787.4,2390.8,183,52.6,27
0.075016,368.0,17.3,1722.2,455.3,2369.2,80.7,368,1781.5,2389.5,182.8,52.8,26.6
0.077016,367.9,16.9,1735.8,465.2,2364.8,93.5,368.1,1774.9,2387.9,182.6,52.9,26.3
0.079016,367.7,16.6,1745.2,446.0,2366.6,103.4,368.1,1767.6,2385.8,182.4,53.1,26
0.081016,367.3,16.3,1746.2,409.4,2370.8,111.1,368,1759.7,2383.4,182.2,53.2,25.7
0.083016,366.9,16.1,1743.4,365.2,2373.8,121.0,367.9,1751.1,2380.6,181.9,53.3,25.4
0.085016,366.6,15.9,1740.1,316.1,2374.2,136.3,367.8,1741.9,2377.6,181.7,53.4,25.1
0.087016,366.5,15.9,1737.7,270.1,2370.7,161.3,367.7,1732,2374.2,181.4,53.5,24.8
0.089016,366.5,16.2,1736.3,234.5,2361.4,196.8,367.5,1721.5,2370.6,181.2,53.5,24.6
0.091016,366.7,16.8,1734.9,210.7,2350.8,223.1,367.4,1710.5,2366.8,180.9,53.6,24.5
0.093016,367.1,18.0,1732.4,191.0,2346.3,229.3,367.3,1699,2362.8,180.6,53.6,24.4
0.095016,367.7,19.6,1728.5,174.4,2348.9,223.2,367.3,1687,2358.8,180.3,53.6,24.4
0.097016,368.5,21.7,1722.8,163.7,2354.0,215.8,367.3,1674.6,2354.7,180,53.6,24.3
0.099016,369.2,23.9,1714.2,160.9,2356.8,210.6,367.4,1661.8,2350.7,179.7,53.5,24.4
0.101016,369.8,26.0,1703.2,166.1,2355.7,206.6,367.7,1648.7,2346.7,179.4,53.4,24.4
0.103016,370.4,28.0,1688.1,176.1,2352.1,200.8,368,1635.3,2342.9,179.1,53.3,24.6
0.105016,371.1,30.1,1668.2,189.8,2347.3,194.8,368.5,1621.7,2339.2,178.7,53.2,24.7
0.107016,371.8,32.1,1644.8,208.1,2343.0,194.0,369.2,1608,2335.8,178.4,53,24.7
0.109016,372.1,34.3,1621.5,230.2,2341.0,202.8,370.1,1594.1,2332.8,178.1,52.9,24.5
0.111016,372.2,36.4,1605.6,246.2,2342.2,220.4,371.1,1580.2,2330,177.7,52.7,24.2
0.113016,372.1,38.4,1595.7,251.4,2345.2,244.6,372.4,1566.2,2327.7,177.4,52.5,23.8
0.115016,371.8,40.4,1586.8,250.4,2345.3,274.3,373.9,1552.4,2325.8,177,52.3,23.4
0.117016,371.4,42.5,1573.3,251.5,2336.3,307.1,375.6,1538.6,2324.4,176.7,52.1,23.1
0.119016,371.5,45.1,1551.2,256.8,2315.5,336.4,377.6,1525,2323.4,176.3,51.9,23
0.121016,372.0,48.0,1521.6,267.3,2289.7,364.5,379.8,1511.5,2323.1,176,51.7,23.3
0.123016,372.5,50.6,1486.4,281.9,2273.4,406.2,382.2,1498.3,2323.2,175.6,51.4,23.6
0.125016,373.6,53.5,1452.3,280.2,2293.8,434.3,384.9,1485.4,2324,175.3,51.2,24
0.127016,375.5,57.2,1425.7,254.9,2343.2,408.8,387.8,1472.7,2325.3,174.9,51,24.1
0.129016,378.1,62.0,1411.6,221.2,2379.4,364.6,391,1460.3,2327.1,174.6,50.7,23.9
0.131016,381.9,67.6,1410.5,191.0,2388.2,348.1,394.4,1448.3,2329.5,174.2,50.5,23.2
0.133016,386.6,73.4,1414.2,168.7,2379.1,359.1,398,1436.6,2332.5,173.9,50.3,22.3
0.135016,391.8,78.8,1416.8,156.6,2363.7,378.8,401.8,1425.3,2336,173.6,50.1,21.4
0.137016,398.1,84.3,1415.7,149.8,2355.5,382.3,405.8,1414.3,2339.9,173.2,49.9,20.6
0.139016,406.5,90.6,1410.4,143.1,2357.6,361.5,410,1403.7,2344.3,172.9,49.7,20.2
0.141016,416.2,95.9,1402.1,137.8,2361.4,334.2,414.3,1393.4,2349.1,172.6,49.5,19.9
0.143016,426.2,99.5,1389.8,136.4,2361.5,312.5,418.8,1383.5,2354.3,172.3,49.4,19.8
0.145016,434.2,101.9,1373.0,140.1,2359.9,292.1,423.4,1373.9,2359.8,171.9,49.3,19.8
0.147016,439.6,103.5,1352.2,148.1,2360.9,262.9,428,1364.7,2365.6,171.6,49.3,19.8
0.149016,443.3,104.4,1326.7,159.0,2366.7,226.6,432.7,1355.7,2371.5,171.3,49.3,19.8
0.151016,446.1,103.6,1302.1,165.7,2375.7,197.6,437.4,1347,2377.6,171,49.4,19.7
0.153016,449.4,100.9,1283.4,163.2,2385.5,180.5,442.2,1338.6,2383.8,170.8,49.5,19.7
0.155016,454.5,97.3,1273.8,152.2,2393.6,177.5,446.9,1330.5,2390,170.5,49.5,19.7
0.157016,460.8,93.2,1272.5,137.4,2398.5,188.7,451.5,1322.6,2396.2,170.2,49.6,19.7
0.159016,467.5,88.1,1276.2,121.6,2399.8,215.3,456.1,1314.8,2402.3,169.9,49.7,19.7
0.161016,473.7,82.9,1280.1,107.5,2397.4,254.7,460.5,1307.3,2408.2,169.6,49.8,19.7
0.163016,478.9,77.9,1282.2,94.7,2391.5,302.7,464.8,1299.9,2414,169.4,49.9,19.6
0.165016,482.3,73.5,1282.4,83.8,2382.9,341.5,469,1292.6,2419.4,169.1,50,19.6
0.167016,484.8,70.2,1281.4,74.6,2376.0,354.3,473,1285.5,2424.6,168.9,50.2,19.6
0.169016,486.7,67.0,1280.6,65.9,2374.7,348.9,476.8,1278.4,2429.5,168.6,50.3,19.6
0.171016,488.0,63.5,1280.6,58.4,2377.4,349.2,480.4,1271.5,2433.9,168.4,50.5,19.6
0.173016,488.9,60.0,1280.6,52.4,2379.8,372.6,483.7,1264.6,2438,168.1,50.7,19.6
0.175016,489.0,57.2,1280.0,48.3,2381.4,428.2,486.8,1257.8,2441.6,167.9,50.9,19.6
0.177016,488.3,54.9,1278.7,46.0,2389.7,512.3,489.6,1251.1,2444.8,167.7,51.1,19.7
0.179016,487.8,52.6,1276.6,44.6,2414.4,603.2,492.1,1244.5,2447.6,167.4,51.3,19.9
0.181016,487.7,50.1,1273.8,43.7,2445.7,657.4,494.4,1237.9,2449.8,167.2,51.5,20.3
0.183016,488.0,47.6,1270.6,43.8,2469.6,672.6,496.4,1231.5,2451.6,166.9,51.8,20.7
0.185016,489.1,45.3,1267.2,45.6,2480.1,663.2,498.1,1225.1,2453,166.7,51.9,21.1
0.187016,490.4,43.3,1262.4,49.2,2479.3,642.7,499.5,1218.9,2454,166.5,52.1,21.5
0.189016,491.8,41.5,1255.0,53.8,2473.8,619.9,500.7,1212.8,2454.5,166.3,52.2,21.6
0.191016,493.3,39.9,1245.4,58.5,2470.2,601.7,501.6,1206.9,2454.7,166,52.3,21.7
0.193016,494.7,38.6,1233.3,62.9,2470.4,590.6,502.2,1201.1,2454.5,165.8,52.4,21.7
0.195016,495.4,37.4,1219.3,67.4,2473.6,603.9,502.6,1195.5,2454,165.6,52.4,21.6
0.197016,495.4,36.9,1203.6,73.4,2480.8,660.8,502.7,1190.2,2453.3,165.4,52.5,21.4
0.199016,494.8,36.5,1186.0,81.2,2497.4,717.4,502.6,1185.2,2452.3,165.1,52.5,21.2
0.201016,493.7,35.4,1170.1,86.4,2518.3,651.8,502.3,1180.5,2451.2,164.9,52.5,20.8
0.203016,492.3,33.7,1157.3,88.2,2525.5,509.3,501.9,1176,2450,164.7,52.5,20.4
0.205016,491.7,32.3,1149.8,85.8,2518.3,397.2,501.2,1172,2448.7,164.5,52.5,19.9
0.207016,492.0,31.4,1148.7,78.6,2503.7,332.7,500.5,1168.3,2447.5,164.3,52.5,19.7
0.209016,493.0,31.2,1151.6,68.8,2481.2,308.1,499.5,1165.1,2446.2,164.1,52.5,19.8
0.211016,494.0,31.7,1155.6,62.4,2453.6,327.9,498.5,1162.3,2445.1,163.9,52.5,20.2
0.213016,494.0,33.0,1159.7,62.1,2429.1,394.5,497.4,1159.9,2444.1,163.7,52.5,20.8
0.215016,493.0,35.2,1162.6,66.5,2419.0,482.8,496.3,1158.1,2443.3,163.5,52.5,21.4
0.217016,491.8,37.6,1163.1,72.0,2426.4,530.4,495.1,1156.7,2442.7,163.3,52.5,22
0.219016,490.9,39.7,1161.4,76.4,2444.0,492.0,493.8,1155.9,2442.5,163.1,52.5,22.4
0.221016,490.2,41.6,1158.1,79.6,2457.6,410.2,492.6,1155.5,2442.5,163,52.5,22.7
0.223016,489.8,43.5,1154.3,82.0,2464.8,340.0,491.4,1155.7,2442.9,162.8,52.5,22.9
0.225016,490.2,45.3,1152.1,82.7,2467.4,300.7,490.2,1156.5,2443.6,162.7,52.5,23.1
0.227016,491.2,46.8,1151.6,81.7,2465.3,292.6,489,1157.7,2444.7,162.5,52.5,23.3
0.229016,492.2,48.3,1151.0,80.6,2457.7,315.4,487.9,1159.5,2446.2,162.4,52.5,23.8
0.231016,492.8,49.1,1149.8,80.6,2446.8,362.8,486.9,1161.7,2448.1,162.2,52.6,24.3
0.233016,492.8,49.4,1147.9,82.5,2432.6,433.2,486,1164.4,2450.4,162.1,52.6,25
0.235016,492.5,49.4,1145.5,86.9,2413.3,522.5,485.1,1167.6,2453,162,52.6,25.6
0.237016,492.2,49.3,1144.9,92.0,2394.3,596.9,484.3,1171.2,2456,161.9,52.6,26.3
0.239016,492.7,49.0,1148.8,94.7,2387.8,610.5,483.6,1175.1,2459.4,161.8,52.5,27
0.241016,493.9,49.2,1155.7,94.6,2395.5,578.6,483,1179.4,2463.1,161.7,52.5,27.7
0.243016,494.8,49.5,1163.6,93.9,2407.3,560.4,482.5,1183.9,2467,161.6,52.4,28.5
0.245016,494.7,49.3,1170.8,95.4,2415.8,593.8,482,1188.7,2471.2,161.5,52.4,29.2
0.247016,493.8,49.0,1176.6,100.5,2417.7,674.0,481.7,1193.7,2475.6,161.5,52.3,29.6
0.249016,493.0,48.6,1182.1,105.9,2422.8,712.7,481.5,1198.8,2480.2,161.4,52.2,29.7
0.251016,492.9,48.0,1189.0,106.1,2445.0,614.5,481.3,1203.9,2484.8,161.4,52.2,29.5
0.253016,492.9,47.7,1197.4,104.2,2470.4,474.6,481.2,1209.1,2489.5,161.3,52.1,29.1
0.255016,492.6,47.6,1206.5,102.2,2490.3,381.3,481.1,1214.3,2494.2,161.3,52,28.5
0.257016,492.4,47.4,1216.4,98.4,2506.6,334.9,481.1,1219.3,2498.8,161.2,51.9,27.7
0.259016,492.1,47.4,1227.2,92.3,2520.3,317.0,481.2,1224.2,2503.3,161.2,51.8,27
0.261016,491.5,47.7,1237.0,85.5,2528.6,314.4,481.3,1228.9,2507.6,161.1,51.7,26
0.263016,490.4,47.9,1245.7,78.8,2531.6,316.4,481.4,1233.3,2511.7,161.1,51.6,25
0.265016,488.4,48.2,1253.0,73.5,2530.1,320.2,481.5,1237.4,2515.5,161,51.4,23.9
0.267016,485.5,48.9,1258.6,69.2,2526.6,327.3,481.7,1241.1,2519,161,51.3,22.6
0.269016,481.8,49.9,1262.5,65.7,2526.1,341.0,481.8,1244.4,2522.1,161,51.1,21.3
0.271016,477.3,51.4,1265.0,63.1,2531.7,359.9,482,1247.3,2524.8,160.9,50.8,19.9
0.273016,471.9,53.8,1266.2,61.3,2541.9,375.8,482.1,1249.7,2527.1,160.9,50.5,18.4
0.275016,466.1,57.3,1266.7,59.1,2554.0,379.8,482.2,1251.6,2528.9,160.9,50,16.8
0.277016,460.1,62.1,1266.6,56.9,2566.9,374.8,482.2,1253,2530.2,160.9,49.5,15.1
0.279016,452.7,68.7,1265.6,55.4,2580.9,370.3,482.3,1253.8,2530.9,160.8,48.7,13.3
0.281016,443.5,74.7,1263.5,54.6,2595.8,375.1,482.3,1254.1,2531.2,160.8,47.8,11.4
