time,f1,b1,f2,b2,f3,b3,f1p,f2p,f3p,f0,intensity,harmonicity
0.025317,280.2,205.1,2248.7,264.5,2656.5,561.0,368.3,2186.7,2528.6,190.2,47.9,21
0.027317,308.0,189.9,2211.5,231.3,2672.5,589.9,368.3,2184.1,2527.9,190.2,48.2,18.9
0.029317,332.6,145.4,2165.9,211.6,2629.9,536.8,368.3,2179.7,2526.9,190.2,48.5,16.4
0.031317,349.8,101.0,2114.2,175.7,2581.6,390.3,368.2,2173.7,2525.4,190.3,48.9,13.9
0.033317,359.6,73.0,2079.9,137.5,2552.9,281.8,368.2,2165.9,2523.6,190.3,49.4,11.9
0.035317,366.2,56.5,2062.5,116.1,2527.9,228.3,368.1,2156.5,2521.4,190.3,49.9,11.1
0.037317,370.8,47.6,2056.8,113.0,2505.2,213.5,368,2145.5,2518.8,190.3,50.5,11.6
0.039317,374.3,42.4,2056.1,119.1,2485.6,211.5,367.9,2132.9,2515.8,190.3,51,13.2
0.041317,377.5,38.5,2056.3,129.6,2467.1,208.0,367.8,2118.9,2512.5,190.3,51.4,15.3
0.043317,380.3,35.9,2055.7,143.4,2450.9,201.1,367.8,2103.4,2509,190.3,51.9,17.6
0.045317,382.8,34.0,2054.2,163.0,2437.9,190.1,367.7,2086.5,2505.1,190.2,52.3,19.5
0.047317,384.5,32.8,2052.0,184.1,2434.6,174.1,367.6,2068.3,2501,190.2,52.6,21.1
0.049317,385.2,32.1,2048.9,201.0,2438.7,156.2,367.5,2048.9,2496.6,190.1,52.9,22.8
0.051317,385.4,31.6,2043.1,212.6,2444.2,138.3,367.4,2028.4,2492.1,190,53.2,24.5
0.053317,385.3,31.2,2034.6,216.3,2447.3,124.0,367.4,2006.8,2487.4,190,53.5,25.8
0.055317,385.0,30.7,2024.7,213.7,2448.9,111.9,367.3,1984.3,2482.6,189.9,53.7,26.8
0.057317,384.6,30.1,2014.6,208.3,2450.1,102.2,367.3,1961,2477.6,189.7,53.8,27.2
0.059317,384.0,29.4,2002.9,202.8,2451.0,94.4,367.3,1936.8,2472.7,189.6,54,27.2
0.061317,383.3,28.8,1986.3,195.6,2451.4,86.8,367.3,1912.1,2467.6,189.4,54.1,26.9
0.063317,382.6,28.2,1965.9,185.9,2450.9,80.3,367.4,1886.7,2462.6,189.3,54.3,26.6
0.065317,382.1,27.8,1941.5,173.1,2449.6,75.1,367.5,1860.9,2457.6,189.1,54.3,26.3
0.067317,381.9,27.6,1916.4,160.1,2446.6,72.9,367.6,1834.7,2452.7,188.9,54.4,26.1
0.069317,382.0,27.6,1892.9,149.9,2441.7,74.5,367.8,1808.2,2447.9,188.7,54.4,25.8
0.071317,382.0,27.7,1870.3,146.1,2436.3,82.2,368.1,1781.5,2443.2,188.5,54.5,25.5
0.073317,381.9,28.1,1851.6,152.7,2432.8,97.8,368.3,1754.8,2438.7,188.2,54.4,25.2
0.075317,381.5,28.9,1832.5,172.2,2430.9,122.2,368.7,1728.1,2434.4,188,54.4,24.8
0.077317,381.0,30.0,1808.8,206.7,2428.3,148.0,369.1,1701.4,2430.3,187.7,54.4,24.4
0.079317,380.5,31.3,1775.0,255.6,2424.3,158.4,369.5,1675,2426.5,187.5,54.3,23.8
0.081317,379.4,32.9,1719.3,322.0,2422.3,144.1,370.1,1648.8,2423,187.2,54.3,23.3
0.083317,377.7,34.0,1645.3,387.4,2424.0,119.7,370.6,1622.9,2419.7,186.9,54.2,22.8
0.085317,375.5,33.8,1557.2,437.0,2426.8,99.9,371.3,1597.4,2416.7,186.6,54.2,22.5
0.087317,373.4,32.4,1480.7,456.8,2427.3,90.9,372.1,1572.4,2414.1,186.3,54.2,22.2
0.089317,372.0,30.3,1435.1,457.9,2423.6,91.5,372.9,1547.9,2411.8,186,54.2,22.1
0.091317,371.3,27.8,1411.7,453.4,2414.7,99.4,373.8,1524,2409.9,185.7,54.3,22
0.093317,371.2,25.4,1395.3,445.5,2403.9,111.6,374.8,1500.7,2408.4,185.4,54.4,22
0.095317,371.5,23.4,1376.1,418.0,2394.7,124.0,375.8,1478,2407.2,185.1,54.5,22.1
0.097317,372.5,22.4,1361.6,359.5,2390.7,132.9,377,1456.1,2406.4,184.8,54.6,22.1
0.099317,373.6,21.8,1351.7,307.2,2394.1,148.0,378.2,1434.9,2405.9,184.5,54.8,22.3
0.101317,374.7,21.3,1344.5,276.5,2408.6,168.1,379.6,1414.4,2405.9,184.1,54.9,22.5
0.103317,375.8,21.2,1339.7,254.8,2423.1,166.3,381,1394.8,2406.2,183.8,55,22.7
0.105317,377.3,21.6,1334.5,231.6,2425.8,145.3,382.5,1375.9,2406.9,183.4,55.1,22.9
0.107317,379.1,22.4,1329.4,207.4,2418.0,123.3,384.1,1357.8,2407.9,183,55.2,23.2
0.109317,380.7,23.4,1324.5,183.8,2409.4,109.1,385.8,1340.5,2409.2,182.6,55.2,23.6
0.111317,382.0,24.9,1318.3,159.8,2404.5,103.0,387.6,1324,2410.9,182.2,55.3,23.9
0.113317,382.7,26.4,1310.1,139.3,2404.0,104.5,389.4,1308.2,2412.9,181.8,55.2,24.1
0.115317,382.8,28.2,1298.4,121.7,2406.2,111.6,391.4,1293.3,2415.1,181.4,55.1,24
0.117317,382.6,30.1,1283.2,108.2,2411.8,121.8,393.4,1279,2417.7,180.9,55,23.4
0.119317,382.4,32.1,1267.1,96.1,2421.5,130.9,395.5,1265.5,2420.4,180.4,54.8,22.5
0.121317,382.4,34.8,1252.4,82.1,2435.2,135.4,397.7,1252.7,2423.4,180,54.6,21.5
0.123317,382.4,37.8,1242.2,70.0,2449.8,136.7,400,1240.6,2426.5,179.5,54.3,20.4
0.125317,382.2,41.4,1234.5,59.9,2463.1,139.6,402.3,1229.1,2429.8,179,54.1,19.6
0.127317,382.5,45.9,1228.1,51.4,2471.0,144.2,404.7,1218.2,2433.3,178.4,53.8,19
0.129317,383.8,51.4,1221.9,44.3,2473.4,149.6,407.1,1207.9,2436.8,177.9,53.5,18.5
0.131317,386.4,58.4,1214.9,38.3,2472.9,155.7,409.6,1198.1,2440.4,177.3,53.2,18.1
0.133317,389.9,65.7,1207.9,33.7,2472.0,161.0,412.2,1188.8,2444,176.8,53,17.7
0.135317,394.6,73.7,1200.4,29.9,2472.0,165.1,414.8,1180,2447.7,176.2,52.7,17.3
0.137317,400.2,81.7,1193.6,27.1,2474.0,165.6,417.4,1171.6,2451.3,175.7,52.4,16.9
0.139317,406.3,88.6,1188.3,25.2,2478.2,158.4,420.1,1163.6,2454.8,175.1,52.2,16.5
0.141317,413.9,95.4,1183.8,23.8,2483.3,143.7,422.8,1155.9,2458.3,174.5,52,16.1
0.143317,421.6,100.5,1179.9,22.9,2486.4,129.5,425.5,1148.5,2461.7,173.9,51.7,15.8
0.145317,429.6,102.9,1176.1,22.7,2487.1,119.0,428.3,1141.4,2464.9,173.3,51.5,15.7
0.147317,437.5,102.7,1171.8,23.6,2485.1,114.8,431,1134.5,2468,172.8,51.3,15.8
0.149317,444.7,101.6,1165.9,26.1,2480.1,117.2,433.8,1127.8,2470.8,172.2,51.2,16
0.151317,451.5,100.8,1157.3,31.0,2469.7,126.3,436.5,1121.4,2473.5,171.6,51,16.4
0.153317,457.7,100.5,1147.1,37.9,2453.7,141.0,439.3,1115,2475.9,171.1,50.9,16.6
0.155317,464.1,100.1,1134.3,46.4,2433.5,162.7,442,1108.8,2478.1,170.5,50.8,16.7
0.157317,470.4,98.9,1119.7,53.4,2418.5,191.8,444.7,1102.7,2480,169.9,50.7,16.4
0.159317,476.6,97.4,1105.5,57.1,2415.6,224.0,447.4,1096.7,2481.6,169.4,50.6,15.9
0.161317,482.4,95.7,1092.8,58.3,2426.7,238.7,450,1090.7,2482.9,168.9,50.6,15.4
0.163317,486.4,94.1,1083.9,59.0,2443.9,215.4,452.7,1084.8,2484,168.3,50.7,15
0.165317,488.7,92.8,1076.8,61.1,2456.8,180.3,455.2,1079,2484.7,167.8,50.8,14.7
0.167317,488.2,91.1,1070.5,63.4,2462.6,158.8,457.7,1073.2,2485.1,167.3,50.9,14.8
0.169317,485.4,88.3,1064.2,65.3,2464.6,151.7,460.2,1067.4,2485.2,166.8,51.1,15
0.171317,481.3,84.8,1056.4,68.0,2465.3,153.7,462.6,1061.7,2485,166.3,51.2,15.3
0.173317,477.2,81.4,1046.8,71.4,2465.5,160.0,465,1056.1,2484.4,165.8,51.4,15.8
0.175317,473.0,77.7,1034.4,74.2,2464.9,168.6,467.3,1050.5,2483.6,165.3,51.5,16.2
0.177317,469.7,73.9,1020.5,75.1,2462.8,179.8,469.5,1044.9,2482.5,164.9,51.7,16.7
0.179317,468.2,70.1,1009.6,72.9,2462.2,190.3,471.6,1039.5,2481.1,164.4,51.7,17.4
0.181317,469.1,66.9,1004.5,67.6,2466.7,195.9,473.7,1034.1,2479.5,164,51.8,18.1
0.183317,472.2,64.8,1004.6,61.9,2473.8,194.7,475.6,1028.9,2477.6,163.6,51.9,18.7
0.185317,475.5,62.4,1005.2,56.4,2480.2,189.1,477.5,1023.7,2475.4,163.1,51.9,19
0.187317,476.8,59.5,1003.1,52.4,2485.6,182.0,479.4,1018.8,2473.1,162.7,51.9,19.2
0.189317,476.4,56.6,998.5,50.8,2490.1,176.1,481.1,1014,2470.6,162.3,51.9,19.1
0.191317,475.5,54.0,992.9,50.9,2491.2,173.1,482.8,1009.4,2467.9,161.9,51.9,18.9
0.193317,474.2,51.9,988.4,52.1,2487.1,175.0,484.3,1005,2465.1,161.6,51.9,18.7
0.195317,472.9,50.2,984.6,54.0,2479.8,182.6,485.8,1000.8,2462.2,161.2,51.8,18.6
0.197317,472.4,49.5,981.5,55.9,2473.7,192.5,487.2,996.9,2459.2,160.9,51.8,18.5
0.199317,473.4,49.7,979.3,56.9,2470.0,202.0,488.5,993.3,2456.2,160.5,51.8,18.3
0.201317,475.8,50.8,977.9,57.7,2466.6,215.4,489.8,990.1,2453.1,160.2,51.8,18.2
0.203317,478.8,52.2,977.7,58.3,2462.4,230.3,490.9,987.1,2450.1,159.9,51.8,18.1
0.205317,481.2,53.2,979.6,58.3,2458.2,238.2,492,984.6,2447.1,159.6,51.8,18.1
0.207317,482.2,53.9,982.9,57.7,2454.7,233.0,493,982.4,2444.2,159.4,51.9,18.2
0.209317,482.8,55.2,985.7,56.6,2451.3,219.4,493.9,980.6,2441.4,159.2,51.9,18.4
0.211317,483.5,57.0,987.4,54.6,2448.2,203.0,494.8,979.3,2438.7,158.9,51.8,18.5
0.213317,484.2,58.9,987.8,52.4,2446.6,191.7,495.5,978.3,2436.2,158.8,51.8,18.6
0.215317,484.5,61.4,987.6,50.7,2445.4,187.7,496.3,977.9,2433.8,158.6,51.6,18.5
0.217317,484.9,64.6,987.7,49.7,2443.1,188.8,496.9,977.9,2431.7,158.5,51.4,18
0.219317,487.0,68.9,988.9,49.5,2437.1,191.7,497.5,978.4,2429.9,158.3,51.1,17.1
0.221317,491.2,75.7,991.0,50.4,2426.6,197.7,498.1,979.4,2428.3,158.3,50.8,16.2
0.223317,495.6,83.3,992.9,51.7,2418.0,206.1,498.6,980.9,2427,158.2,50.5,15.5
0.225317,498.0,89.4,994.1,53.2,2415.2,215.8,499,982.9,2426,158.2,50.2,15.1
0.227317,497.8,92.8,994.9,55.4,2417.7,223.2,499.5,985.4,2425.4,158.2,50.1,15.2
0.229317,497.1,94.4,996.8,57.2,2422.0,223.1,499.8,988.4,2425.1,158.2,50.1,15.6
0.231317,497.4,94.3,1000.9,57.4,2427.5,214.7,500.2,991.9,2425.1,158.3,50.2,16.1
0.233317,498.4,93.0,1006.2,56.7,2433.1,203.9,500.5,995.9,2425.5,158.4,50.3,16.8
0.235317,499.3,91.3,1012.0,56.0,2438.8,194.4,500.8,1000.3,2426.3,158.5,50.5,17.3
0.237317,500.2,89.8,1017.0,55.1,2444.2,188.5,501.1,1005.3,2427.5,158.7,50.6,17.8
0.239317,500.9,89.8,1021.3,54.7,2447.9,188.3,501.3,1010.7,2429.1,158.9,50.7,18.4
0.241317,501.7,91.9,1025.6,55.3,2450.1,194.4,501.5,1016.5,2431.1,159.1,50.8,19
0.243317,502.5,94.4,1029.7,56.1,2452.4,202.4,501.7,1022.7,2433.4,159.3,50.8,19.5
0.245317,503.8,96.5,1034.4,56.7,2456.9,208.1,502,1029.3,2436.1,159.6,50.9,19.9
0.247317,505.8,98.0,1039.7,57.0,2462.0,208.9,502.2,1036.3,2439.2,159.9,50.9,20.4
0.249317,508.4,98.2,1045.0,56.2,2465.7,207.0,502.4,1043.7,2442.7,160.2,50.9,20.8
0.251317,511.5,97.1,1050.7,54.5,2468.1,209.8,502.5,1051.3,2446.5,160.6,51,21.2
0.253317,514.1,95.7,1056.5,53.3,2468.9,223.1,502.7,1059.3,2450.6,161,51,21.4
0.255317,516.1,93.6,1063.0,52.2,2467.6,245.5,502.9,1067.4,2455.1,161.4,51.1,21.3
0.257317,517.1,90.2,1069.6,50.6,2462.2,265.9,503.1,1075.8,2459.8,161.8,51.2,20.7
0.259317,517.5,86.4,1076.5,48.5,2453.0,275.7,503.3,1084.4,2464.8,162.2,51.4,19.9
0.261317,517.4,81.9,1084.5,46.1,2444.0,273.2,503.5,1093.1,2470,162.7,51.6,18.8
0.263317,516.2,76.3,1092.9,44.2,2441.4,261.7,503.7,1102,2475.5,163.1,51.9,17.8
0.265317,513.7,69.4,1102.6,43.2,2445.6,247.1,504,1110.9,2481.1,163.6,52.2,17
0.267317,511.0,62.5,1112.3,43.2,2453.4,236.4,504.2,1119.8,2486.9,164.1,52.5,16.4
0.269317,508.9,56.4,1120.9,43.5,2460.0,232.9,504.4,1128.8,2492.9,164.6,52.8,15.9
0.271317,507.3,50.4,1129.7,43.7,2463.8,236.5,504.6,1137.7,2498.9,165.1,53,15.5
0.273317,506.2,45.4,1139.1,43.1,2467.1,242.4,504.9,1146.5,2504.9,165.6,53.3,15.1
0.275317,505.5,40.5,1149.4,40.9,2474.9,243.7,505.1,1155.2,2511,166.2,53.5,14.8
0.277317,505.2,36.3,1158.9,38.1,2486.0,238.0,505.4,1163.8,2517.1,166.7,53.6,14.7
0.279317,505.7,33.3,1166.9,36.4,2495.1,230.0,505.6,1172.1,2523.2,167.2,53.7,14.6
0.281317,507.1,31.3,1175.1,35.8,2501.6,222.3,505.8,1180.3,2529.1,167.7,53.8,14.6
0.283317,509.0,30.0,1183.7,36.2,2506.7,216.0,506.1,1188.2,2534.9,168.2,53.7,14.6
0.285317,511.0,29.1,1193.6,37.2,2514.2,208.8,506.3,1195.8,2540.6,168.7,53.7,14.6
0.287317,513.1,28.6,1203.5,37.9,2525.3,199.0,506.5,1203,2546.1,169.2,53.6,14.4
0.289317,514.8,28.6,1212.4,38.2,2536.7,189.3,506.8,1209.9,2551.4,169.7,53.5,14.2
0.291317,515.7,29.0,1221.4,38.7,2546.4,184.3,507,1216.4,2556.4,170.2,53.3,14
0.293317,515.4,29.5,1230.3,39.3,2552.7,189.6,507.2,1222.5,2561.1,170.6,53.1,13.8
0.295317,514.0,30.5,1239.4,39.9,2558.0,208.8,507.4,1228.2,2565.6,171.1,52.8,13.5
0.297317,512.0,32.7,1247.1,41.1,2563.7,240.4,507.6,1233.4,2569.7,171.5,52.4,13.3
0.299317,509.8,37.0,1251.6,43.5,2569.9,269.8,507.7,1238.1,2573.4,171.9,51.9,13.1
0.301317,507.4,44.4,1253.0,47.5,2576.3,284.9,507.9,1242.3,2576.8,172.2,51.3,12.8
0.303317,504.4,53.9,1252.2,51.9,2582.5,286.8,508,1246,2579.7,172.6,50.6,12.4
0.305317,500.4,65.3,1250.6,56.0,2591.2,287.6,508.1,1249.1,2582.2,172.9,49.8,11.5
0.307317,496.4,77.1,1249.1,59.0,2604.4,294.4,508.2,1251.7,2584.3,173.2,48.8,10
0.309317,492.9,85.3,1248.2,59.7,2621.5,303.4,508.3,1253.7,2586,173.5,47.7,7.9
0.311317,488.8,84.0,1248.0,56.8,2640.9,304.7,508.4,1255.2,2587.1,173.8,46.4,5.7
0.313317,486.8,71.4,1248.3,51.9,2657.3,294.5,508.4,1256.1,2587.8,174,45,3.8
0.315317,491.0,56.7,1247.3,50.0,2670.7,284.4,508.4,1256.3,2588.1,174.2,43.6,2.7
