time,f1,b1,f2,b2,f3,b3,f1p,f2p,f3p,f0,intensity,harmonicity
0.025642,422.0,80.7,2384.9,229.9,2893.7,2474.2,439.7,2376.4,2821.1,217.7,47.4,7.1
0.027642,427.1,77.9,2392.8,257.7,2855.6,1883.3,439.2,2376,2823.3,217.2,47.7,7.7
0.029642,431.1,76.4,2392.5,274.8,2853.0,1407.7,438.4,2375.5,2826.9,216.7,47.9,9.6
0.031642,434.1,74.2,2387.3,267.7,2857.4,1151.7,437.3,2374.7,2831.8,216.2,48,12.1
0.033642,436.1,70.0,2385.2,237.7,2867.5,1079.6,435.8,2373.7,2838.1,215.6,48.3,14.8
0.035642,436.8,64.5,2386.2,198.8,2881.9,1145.8,434.1,2372.5,2845.5,215,48.5,17.1
0.037642,436.6,58.1,2385.9,159.1,2901.6,1277.2,432.2,2371.1,2854,214.4,48.9,18.5
0.039642,436.0,52.1,2383.0,130.1,2922.2,1357.6,430.1,2369.6,2863.5,213.7,49.3,18.5
0.041642,435.0,46.9,2378.2,116.4,2925.8,1310.2,427.9,2367.9,2873.9,213.1,49.7,17.7
0.043642,433.4,42.2,2370.0,116.6,2902.3,1164.7,425.6,2366,2884.9,212.4,50.2,16.5
0.045642,431.4,38.6,2357.7,128.8,2873.9,1006.5,423.3,2364.1,2896.5,211.7,50.6,15.4
0.047642,429.0,35.7,2341.6,151.4,2854.1,881.8,421,2362,2908.5,210.9,51.1,15
0.049642,426.3,33.0,2327.6,182.1,2842.7,821.2,418.8,2359.9,2920.7,210.2,51.6,15.5
0.051642,423.7,30.9,2319.8,214.3,2838.5,788.3,416.8,2357.7,2932.9,209.5,52.1,16.5
0.053642,421.6,28.9,2317.9,243.8,2845.9,748.1,414.9,2355.4,2945.1,208.7,52.6,17.7
0.055642,420.0,27.1,2322.1,268.2,2865.3,718.3,413.3,2353.1,2956.9,207.9,53.1,18.9
0.057642,418.5,25.1,2330.8,296.4,2893.7,717.5,412,2350.9,2968.4,207.2,53.6,19.8
0.059642,417.0,23.0,2338.8,335.6,2926.2,756.1,411,2348.6,2979.2,206.4,54.2,20.3
0.061642,415.4,21.1,2338.0,373.1,2960.1,817.7,410.5,2346.3,2989.3,205.6,54.7,20.6
0.063642,413.7,19.7,2331.1,355.3,2998.0,905.9,410.4,2344.1,2998.6,204.9,55.3,20.8
0.065642,412.3,19.1,2334.6,288.9,3031.3,1038.2,410.7,2341.9,3007,204.1,55.9,21
0.067642,411.4,19.3,2343.8,235.0,3066.9,1183.0,411.5,2339.8,3014.3,203.3,56.4,21.1
0.069642,411.3,20.5,2349.3,209.1,3068.5,1249.9,412.9,2337.7,3020.4,202.5,56.8,21.3
0.071642,411.8,22.4,2350.8,197.8,3026.9,1263.1,414.8,2335.6,3025.4,201.7,57.2,21.5
0.073642,412.9,25.0,2350.0,189.6,2980.3,1286.9,417.2,2333.6,3029.1,200.9,57.4,21.5
0.075642,414.2,28.1,2347.5,183.0,2946.1,1347.7,420.1,2331.7,3031.6,200.2,57.6,21.5
0.077642,415.5,31.8,2343.4,176.7,2936.9,1464.0,423.6,2329.7,3032.8,199.4,57.7,21.4
0.079642,416.7,35.9,2338.3,169.9,2985.6,1646.7,427.6,2327.8,3032.8,198.6,57.8,21
0.081642,417.6,40.3,2333.5,166.0,3084.3,1805.1,432.1,2325.9,3031.5,197.8,57.7,20.4
0.083642,419.0,45.5,2329.4,170.7,3155.7,1803.9,437,2324,3029.1,197,57.5,19.7
0.085642,421.0,51.6,2326.6,186.0,3140.8,1659.4,442.4,2322.1,3025.6,196.2,57.2,19.1
0.087642,424.2,59.2,2324.1,211.3,3081.2,1431.9,448.2,2320.1,3021,195.4,56.9,18.5
0.089642,429.0,68.3,2321.0,237.4,3024.1,1196.9,454.3,2318.1,3015.5,194.7,56.5,18.1
0.091642,435.5,78.0,2317.1,255.0,2989.7,1026.2,460.8,2316,3009.1,193.9,56,17.8
0.093642,444.0,89.2,2313.8,267.5,2981.8,921.8,467.4,2313.8,3002,193.1,55.5,17.6
0.095642,453.6,101.1,2313.4,280.4,3005.6,870.0,474.3,2311.5,2994.3,192.3,54.9,17.2
0.097642,467.0,114.7,2314.8,299.8,3032.2,814.2,481.4,2309,2986.2,191.5,54.3,16.7
0.099642,487.1,126.6,2312.7,326.6,3011.4,744.9,488.5,2306.3,2977.6,190.7,53.7,16
0.101642,512.1,130.7,2307.2,349.0,2968.2,665.9,495.6,2303.4,2968.8,190,53,15
0.103642,538.7,123.9,2303.0,349.1,2939.7,579.7,502.8,2300.3,2960,189.2,52.5,14
0.105642,558.9,109.7,2303.3,322.8,2933.8,509.0,509.9,2297,2951.1,188.4,52,13.2
0.107642,571.7,93.8,2305.6,286.4,2939.1,455.6,516.8,2293.4,2942.4,187.6,51.7,12.9
0.109642,576.4,81.5,2305.2,260.5,2946.1,428.1,523.6,2289.5,2933.9,186.9,51.5,13.2
0.111642,575.8,73.2,2299.9,249.1,2950.8,423.6,530.2,2285.4,2925.7,186.1,51.4,14.1
0.113642,572.4,66.7,2288.9,241.6,2951.9,425.1,536.6,2281,2918,185.3,51.5,15.1
0.115642,568.1,61.2,2274.1,227.8,2947.2,414.5,542.7,2276.2,2910.8,184.6,51.7,16.1
0.117642,563.6,55.9,2258.1,205.7,2935.5,390.0,548.5,2271.2,2904.1,183.8,51.9,16.8
0.119642,559.5,51.2,2244.0,183.2,2919.3,360.5,554,2265.8,2898.1,183,52.2,17.1
0.121642,555.9,47.6,2233.2,165.2,2903.6,330.8,559.1,2260.1,2892.7,182.3,52.6,17.3
0.123642,552.8,44.9,2224.8,152.5,2889.5,304.8,563.9,2254.2,2888,181.5,52.9,17.3
0.125642,550.3,43.2,2218.5,149.5,2876.9,294.8,568.4,2247.9,2883.9,180.7,53.3,17.1
0.127642,548.5,42.1,2212.9,160.6,2862.8,308.2,572.5,2241.4,2880.5,180,53.6,16.7
0.129642,547.6,42.0,2210.1,189.3,2848.6,354.3,576.3,2234.6,2877.7,179.2,53.8,16.1
0.131642,548.1,43.2,2214.8,226.7,2841.4,436.3,579.7,2227.6,2875.6,178.4,53.9,15.1
0.133642,550.6,45.9,2226.7,253.3,2846.3,550.9,582.9,2220.4,2874,177.6,53.9,13.9
0.135642,555.3,49.2,2232.2,257.0,2854.8,638.2,585.8,2213,2872.8,176.9,53.8,12.8
0.137642,562.2,53.5,2224.5,252.6,2852.9,659.8,588.4,2205.4,2872.1,176.1,53.5,11.9
0.139642,570.8,59.1,2208.2,249.2,2843.3,630.0,590.8,2197.8,2871.8,175.3,53.2,11
0.141642,581.0,65.7,2192.3,246.3,2836.4,595.5,593.1,2190,2871.7,174.5,52.8,10.2
0.143642,592.8,73.2,2180.1,246.6,2832.3,579.8,595.1,2182.2,2871.8,173.7,52.4,9.5
0.145642,603.2,80.6,2172.3,255.4,2829.5,589.0,597,2174.4,2871.9,172.9,52.1,8.9
0.147642,609.6,88.0,2169.1,271.3,2837.2,617.3,598.9,2166.6,2872.1,172.1,51.9,8.7
0.149642,608.4,92.3,2171.3,283.2,2869.3,637.1,600.7,2158.9,2872.2,171.3,51.8,8.9
0.151642,603.6,90.0,2170.5,288.7,2894.7,614.2,602.4,2151.3,2872.1,170.6,51.9,9.6
0.153642,600.1,83.2,2161.7,297.1,2890.8,591.2,604.1,2143.9,2871.8,169.8,52.1,10.3
0.155642,599.8,78.1,2151.2,309.4,2875.6,594.7,605.9,2136.6,2871.1,169,52.2,11
0.157642,602.6,76.1,2142.8,326.1,2858.2,621.2,607.7,2129.6,2870.1,168.3,52.3,11.4
0.159642,607.2,75.6,2136.3,338.1,2842.6,648.2,609.6,2122.8,2868.6,167.6,52.3,11.4
0.161642,611.4,74.4,2128.3,334.8,2831.4,656.2,611.5,2116.3,2866.6,166.8,52.3,11.1
0.163642,615.5,72.7,2117.2,314.5,2825.2,652.3,613.5,2110.2,2864.2,166.1,52.1,10.7
0.165642,619.2,70.8,2107.1,283.4,2828.7,649.0,615.6,2104.4,2861.2,165.4,51.9,10.4
0.167642,623.0,68.3,2100.0,247.2,2849.6,647.4,617.8,2098.9,2857.7,164.8,51.8,10.5
0.169642,627.9,65.7,2095.6,218.2,2882.5,633.3,620.1,2093.9,2853.7,164.1,51.6,10.9
0.171642,633.4,63.0,2090.9,203.5,2902.5,596.0,622.4,2089.3,2849.3,163.5,51.5,11.6
0.173642,638.4,59.4,2083.8,202.2,2900.9,541.7,624.8,2085.2,2844.3,162.9,51.5,12.4
0.175642,641.7,56.5,2074.7,213.1,2889.4,490.6,627.2,2081.5,2839,162.3,51.4,13.2
0.177642,644.0,54.9,2064.3,232.4,2879.0,454.9,629.6,2078.3,2833.3,161.7,51.3,13.7
0.179642,645.4,54.0,2053.8,250.9,2870.4,448.8,632,2075.5,2827.4,161.1,51.2,14.1
0.181642,647.1,53.7,2043.6,264.4,2859.6,474.8,634.4,2073.2,2821.3,160.6,51.1,14.2
0.183642,649.0,54.3,2037.3,277.9,2848.0,525.2,636.6,2071.4,2815.1,160.1,51,14.3
0.185642,649.8,54.7,2039.1,288.3,2838.9,554.5,638.8,2070,2808.9,159.6,50.9,14.4
0.187642,649.3,54.5,2047.6,292.5,2830.1,534.3,640.7,2069.1,2802.8,159.1,50.8,14.7
0.189642,648.6,53.9,2058.3,290.2,2817.9,488.8,642.5,2068.6,2796.8,158.7,50.8,15.1
0.191642,647.8,52.9,2066.0,282.8,2801.5,440.5,644,2068.6,2791.2,158.2,50.8,15.6
0.193642,646.3,51.7,2071.5,270.8,2784.6,389.1,645.3,2069,2786,157.8,50.8,16.2
0.195642,643.8,51.4,2077.1,258.6,2775.2,352.8,646.2,2069.7,2781.3,157.4,50.8,16.6
0.197642,640.2,52.3,2082.9,246.3,2772.1,337.7,646.8,2070.9,2777.1,156.9,50.8,16.7
0.199642,636.4,54.5,2088.0,233.6,2769.4,342.5,647,2072.3,2773.6,156.6,50.7,16.5
0.201642,633.9,58.0,2093.7,222.6,2762.9,360.6,646.9,2074.1,2770.9,156.2,50.7,16
0.203642,633.9,61.1,2100.3,214.9,2752.4,384.3,646.3,2076.2,2768.9,155.8,50.5,15.3
0.205642,635.2,61.1,2106.0,215.3,2743.7,405.7,645.3,2078.5,2767.9,155.4,50.4,14.7
0.207642,636.3,58.6,2110.5,229.8,2739.4,428.2,643.9,2081.1,2767.7,155.1,50.3,14.4
0.209642,635.9,57.0,2112.9,257.3,2737.9,448.1,642,2083.8,2768.4,154.7,50.2,14.2
0.211642,633.4,57.4,2111.4,282.6,2737.7,460.6,639.8,2086.8,2770.1,154.4,50.1,14.1
0.213642,628.3,59.7,2103.7,299.6,2741.5,473.4,637.1,2089.8,2772.7,154.1,50,14.1
0.215642,621.5,62.2,2091.9,307.8,2753.3,487.0,634,2093,2776.3,153.8,49.9,14.2
0.217642,614.9,62.9,2082.5,295.5,2772.7,482.1,630.5,2096.3,2780.7,153.5,49.9,14.4
0.219642,611.3,61.6,2081.6,250.3,2789.3,438.0,626.7,2099.6,2785.9,153.2,49.9,14.7
0.221642,610.9,59.7,2085.1,198.9,2796.8,377.9,622.6,2102.9,2791.9,152.9,49.9,15.2
0.223642,611.9,57.3,2088.8,165.0,2802.1,337.1,618.2,2106.2,2798.6,152.6,50,15.6
0.225642,612.8,54.5,2092.4,155.8,2811.0,331.6,613.6,2109.5,2805.9,152.3,50,16.1
0.227642,613.6,51.9,2097.3,166.0,2822.5,353.9,608.8,2112.7,2813.7,152.1,50.1,16.3
0.229642,613.0,49.6,2103.5,186.1,2826.9,383.9,603.9,2115.9,2821.8,151.8,50.2,16.2
0.231642,610.3,47.0,2108.3,197.3,2816.3,396.3,598.9,2118.9,2830.3,151.6,50.4,16.1
0.233642,605.7,44.4,2110.4,192.2,2797.6,391.0,594,2121.8,2838.9,151.4,50.5,15.8
0.235642,600.6,43.0,2111.6,178.5,2787.7,388.0,589.1,2124.6,2847.6,151.1,50.6,15.5
0.237642,595.5,42.7,2114.4,163.4,2794.2,401.6,584.3,2127.2,2856.1,150.9,50.6,15.3
0.239642,590.4,43.6,2119.7,150.8,2818.3,434.9,579.7,2129.6,2864.4,150.7,50.6,15.1
0.241642,584.9,45.7,2126.7,142.9,2853.3,479.9,575.3,2131.9,2872.4,150.6,50.5,14.9
0.243642,578.5,48.3,2134.7,139.4,2888.4,527.5,571.2,2133.9,2879.9,150.4,50.4,14.8
0.245642,573.2,50.8,2142.2,142.0,2904.6,568.1,567.5,2135.8,2886.8,150.2,50.2,14.7
0.247642,569.5,54.7,2150.6,152.5,2898.0,599.3,564.1,2137.4,2893,150.1,50,14.6
0.249642,566.7,59.6,2157.4,166.8,2880.6,611.3,561.2,2138.7,2898.4,150,49.7,14.7
0.251642,562.9,63.5,2158.8,174.7,2876.0,610.9,558.8,2139.9,2903,149.8,49.5,15
0.253642,557.7,67.6,2154.4,173.4,2899.0,616.8,556.9,2140.8,2906.6,149.7,49.3,15.2
0.255642,551.5,73.0,2147.4,166.9,2945.4,634.8,555.5,2141.4,2909.2,149.6,49,15.2
0.257642,542.6,78.4,2140.7,158.9,3002.5,643.3,554.6,2141.8,2910.8,149.5,48.8,14.9
0.259642,530.7,82.3,2135.9,154.7,3045.1,606.1,554.3,2141.9,2911.4,149.4,48.6,13.7
