time,f1,b1,f2,b2,f3,b3,f1p,f2p,f3p,f0,intensity,harmonicity
0.025168,389.2,329.9,1071.5,534.5,2792.9,326.9,413.6,1100.8,2780,216.8,41.1,-10.1
0.027168,393.8,218.7,1088.3,344.6,2756.3,291.6,413.7,1099.5,2779.4,216.6,42.5,19.5
0.029168,400.1,163.7,1088.6,256.3,2741.7,277.9,413.8,1097.3,2778.3,216.4,43.7,26.2
0.031168,404.6,127.7,1081.9,203.0,2754.1,273.0,414.1,1094.3,2776.8,216.2,44.7,23.6
0.033168,407.8,104.6,1074.3,174.5,2786.9,274.0,414.4,1090.5,2774.9,216,45.6,17
0.035168,411.2,91.7,1071.1,168.1,2810.8,276.1,414.7,1085.9,2772.6,215.7,46.3,11.6
0.037168,415.4,84.6,1072.2,180.3,2801.4,270.6,415.1,1080.6,2770,215.5,46.9,11.7
0.039168,419.4,79.5,1072.7,199.7,2768.6,248.3,415.5,1074.5,2767,215.2,47.4,13.5
0.041168,422.9,73.8,1069.0,215.6,2741.0,220.1,416,1067.8,2763.9,214.8,47.8,15.9
0.043168,425.6,67.9,1062.8,221.9,2731.0,203.0,416.5,1060.4,2760.4,214.4,48.1,18.2
0.045168,427.9,62.9,1058.7,223.8,2734.0,195.2,416.9,1052.5,2756.8,214,48.3,20
0.047168,430.0,58.5,1056.6,226.8,2744.8,191.0,417.4,1044.1,2753.1,213.6,48.5,21
0.049168,431.4,54.1,1053.4,228.1,2755.7,188.7,417.8,1035.2,2749.3,213.2,48.6,21.2
0.051168,431.7,48.9,1046.4,220.4,2760.7,185.9,418.2,1025.9,2745.4,212.7,48.8,21
0.053168,430.9,44.1,1037.2,201.6,2757.3,177.4,418.6,1016.3,2741.5,212.1,48.9,20.5
0.055168,429.7,41.1,1028.3,180.0,2752.0,161.6,418.9,1006.5,2737.6,211.6,49.1,20.2
0.057168,428.3,39.6,1018.5,159.3,2749.0,141.2,419.1,996.4,2733.9,211,49.3,20.1
0.059168,427.1,38.8,1007.7,141.9,2747.7,121.2,419.3,986.3,2730.2,210.4,49.4,20
0.061168,425.9,38.6,995.3,127.0,2745.0,101.4,419.4,976.1,2726.7,209.7,49.6,20
0.063168,424.9,39.9,982.0,116.8,2739.3,85.2,419.5,965.9,2723.4,209.1,49.9,20
0.065168,423.9,42.7,968.0,109.8,2732.2,75.3,419.4,955.8,2720.3,208.4,50.1,20.1
0.067168,422.6,45.8,951.4,101.9,2724.0,71.6,419.3,945.9,2717.5,207.7,50.4,20.1
0.069168,420.9,47.4,935.1,92.2,2715.2,74.2,419.1,936.2,2714.8,206.9,50.7,20.3
0.071168,418.8,47.0,919.3,81.3,2704.2,83.7,418.8,926.7,2712.5,206.2,51.1,20.4
0.073168,416.7,44.9,906.1,71.9,2691.9,101.2,418.5,917.6,2710.5,205.4,51.5,20.6
0.075168,414.9,42.6,896.2,65.5,2681.8,126.6,418.1,908.9,2708.7,204.6,51.9,20.8
0.077168,413.3,40.3,888.4,61.2,2676.8,163.3,417.7,900.6,2707.2,203.8,52.4,21.1
0.079168,412.0,38.4,882.4,58.4,2679.9,208.7,417.2,892.7,2705.9,203,52.8,21.6
0.081168,410.7,36.6,876.3,56.7,2693.2,261.8,416.7,885.4,2704.9,202.2,53.2,22.1
0.083168,409.5,35.4,869.8,56.4,2717.0,304.4,416.2,878.5,2704.2,201.3,53.5,22.5
0.085168,408.3,34.8,863.6,57.2,2741.0,324.4,415.7,872.3,2703.7,200.5,53.8,22.7
0.087168,407.1,34.1,858.4,57.5,2748.3,337.9,415.2,866.6,2703.3,199.6,54,22.4
0.089168,406.0,33.3,855.0,56.7,2734.3,337.2,414.8,861.5,2703.2,198.8,54.2,21.6
0.091168,405.0,33.3,851.5,55.4,2714.7,306.0,414.5,857,2703.2,197.9,54.2,20.6
0.093168,404.0,34.2,846.0,54.0,2698.6,260.1,414.2,853.1,2703.3,197.1,54.2,19.4
0.095168,402.8,35.8,839.2,52.5,2687.8,219.8,414,849.7,2703.5,196.2,54.1,18.4
0.097168,401.6,37.9,833.6,51.5,2681.3,190.8,413.9,847,2703.7,195.4,53.9,17.7
0.099168,400.9,40.4,832.3,51.6,2677.8,178.2,414,844.8,2704,194.5,53.6,17.1
0.101168,401.0,43.7,835.4,53.0,2675.4,180.9,414.2,843.1,2704.3,193.7,53.3,16.6
0.103168,402.2,48.1,841.0,55.9,2675.0,196.7,414.5,841.9,2704.5,192.9,52.9,16.1
0.105168,404.4,54.0,845.7,60.2,2678.5,217.2,415.1,841.2,2704.7,192,52.4,15.6
0.107168,407.9,62.3,846.9,65.4,2687.1,230.8,415.8,840.9,2704.8,191.2,51.8,15
0.109168,412.5,72.7,843.6,69.2,2697.4,226.1,416.7,841.1,2704.8,190.4,51.2,14.2
0.111168,418.8,86.6,837.6,70.6,2706.5,206.2,417.9,841.5,2704.6,189.7,50.6,13.3
0.113168,428.1,101.7,833.8,69.9,2712.3,180.0,419.2,842.3,2704.4,188.9,50,12.5
0.115168,441.1,114.0,835.1,69.4,2715.7,155.1,420.7,843.3,2704,188.2,49.5,11.8
0.117168,455.9,120.4,841.2,69.7,2718.3,132.5,422.5,844.5,2703.4,187.5,49,11.5
0.119168,465.3,117.5,849.0,69.2,2720.6,116.5,424.4,845.9,2702.7,186.8,48.6,11.3
0.121168,466.5,106.1,856.5,66.9,2722.4,106.3,426.6,847.4,2701.8,186.1,48.4,11.2
0.123168,461.5,92.2,862.2,63.2,2721.9,101.4,428.9,848.9,2700.8,185.5,48.3,11.3
0.125168,455.4,81.9,866.1,59.3,2718.2,99.0,431.4,850.5,2699.6,184.9,48.3,11.6
0.127168,450.0,75.8,868.6,56.0,2711.6,97.9,434.1,852.1,2698.2,184.3,48.3,12
0.129168,446.1,72.9,870.0,53.9,2704.8,98.7,436.9,853.6,2696.8,183.7,48.3,12.9
0.131168,442.8,71.5,871.1,53.2,2698.9,103.0,439.9,855,2695.2,183.2,48.3,13.9
0.133168,438.9,71.3,872.5,54.0,2694.4,111.3,442.9,856.2,2693.4,182.7,48.3,14.9
0.135168,434.2,71.4,873.6,55.2,2691.1,122.0,446.1,857.3,2691.7,182.3,48.4,15.6
0.137168,429.1,71.1,873.5,56.1,2688.4,134.9,449.3,858.3,2689.8,181.8,48.4,15.8
0.139168,425.8,70.0,870.9,56.3,2684.9,148.3,452.6,859,2687.8,181.4,48.4,15.5
0.141168,425.4,69.9,866.7,56.6,2679.6,158.6,455.9,859.5,2685.9,181,48.4,15
0.143168,428.1,73.6,862.7,57.8,2675.1,164.1,459.2,859.8,2683.9,180.7,48.3,14.3
0.145168,433.2,80.4,859.3,59.4,2673.0,165.5,462.5,859.9,2681.8,180.4,48.2,13.9
0.147168,440.5,88.2,855.5,61.6,2673.8,160.7,465.7,859.7,2679.8,180.1,48.2,13.8
0.149168,449.3,94.4,851.0,64.5,2676.0,150.8,468.9,859.4,2677.8,179.8,48.1,13.9
0.151168,459.5,98.2,845.9,67.6,2676.4,138.4,471.9,858.8,2675.8,179.6,48,14.1
0.153168,470.4,99.3,841.2,69.7,2673.2,127.5,474.9,858.1,2673.9,179.4,48,14.4
0.155168,480.9,99.9,837.7,70.9,2668.2,119.0,477.7,857.2,2671.9,179.2,47.9,14.8
0.157168,490.9,100.4,835.4,71.6,2664.1,111.8,480.3,856.2,2670.1,179,47.9,15.1
0.159168,497.5,99.2,835.1,72.0,2663.0,106.5,482.8,855.1,2668.2,178.9,47.9,15.3
0.161168,499.6,94.9,836.4,71.1,2664.0,104.4,485.1,853.9,2666.4,178.8,48,15.6
0.163168,498.0,88.4,838.6,67.7,2664.7,107.5,487.1,852.6,2664.7,178.7,48,15.9
0.165168,496.0,82.7,840.7,63.1,2663.8,115.8,489,851.4,2662.9,178.6,48,16.3
0.167168,495.5,78.4,842.7,58.4,2661.1,127.7,490.6,850.1,2661.2,178.5,48.1,17
0.169168,496.8,75.1,844.5,54.6,2658.1,138.0,492,849,2659.5,178.5,48.1,18
0.171168,499.0,71.8,846.4,51.6,2656.3,147.3,493.2,847.9,2657.9,178.5,48.1,19.1
0.173168,500.9,68.3,848.2,49.0,2655.6,158.9,494.1,847,2656.2,178.5,48,20.3
0.175168,501.4,65.1,849.6,46.8,2656.0,170.1,494.8,846.2,2654.5,178.5,48,21.2
0.177168,500.6,62.7,851.0,45.6,2658.6,173.7,495.2,845.6,2652.7,178.6,48,21.8
0.179168,498.9,61.0,852.1,45.0,2660.7,167.7,495.4,845.2,2651,178.7,48,22.3
0.181168,497.2,59.2,852.7,44.0,2658.6,159.8,495.4,845.1,2649.2,178.8,48,22.5
0.183168,496.6,58.2,852.9,42.6,2652.9,155.8,495.1,845.2,2647.3,178.9,48,22.7
0.185168,497.2,58.8,853.4,41.7,2646.3,155.9,494.7,845.6,2645.4,179,47.9,22.7
0.187168,498.4,60.3,854.3,41.1,2638.3,159.5,494,846.3,2643.3,179.1,47.8,22.6
0.189168,500.0,62.0,855.4,40.7,2629.5,165.8,493.2,847.2,2641.3,179.3,47.6,22.4
0.191168,500.9,63.8,856.3,39.9,2621.2,175.4,492.2,848.5,2639.1,179.5,47.5,22.1
0.193168,500.1,65.5,856.9,38.8,2615.8,189.3,491.1,850,2636.9,179.7,47.3,21.7
0.195168,497.3,67.2,857.7,37.6,2614.3,203.8,489.8,851.8,2634.5,179.9,47.1,21.2
0.197168,492.6,69.9,859.0,36.5,2616.8,211.2,488.4,853.8,2632.1,180.1,46.9,20.7
0.199168,487.0,73.7,860.7,35.9,2620.3,209.2,486.9,856.1,2629.7,180.3,46.7,20.1
0.201168,481.3,78.6,862.7,35.7,2622.0,208.2,485.4,858.5,2627.2,180.6,46.5,19.4
0.203168,476.4,83.8,864.9,35.6,2623.8,216.6,483.7,861.2,2624.7,180.8,46.4,18.7
0.205168,472.5,88.0,867.2,35.6,2627.2,236.9,482.1,864,2622.1,181.1,46.2,18.1
0.207168,468.9,89.5,869.3,34.9,2631.1,271.6,480.4,866.9,2619.6,181.3,46.1,17.6
0.209168,465.1,87.2,871.0,33.8,2635.0,313.7,478.8,869.9,2617,181.6,45.9,17.2
0.211168,461.1,82.0,872.5,33.1,2640.1,360.1,477.1,872.9,2614.5,181.8,45.8,16.8
0.213168,457.8,76.4,873.8,33.8,2646.4,401.2,475.5,875.9,2612.1,182.1,45.7,16.5
0.215168,456.0,72.2,875.1,36.2,2651.6,433.4,474,878.8,2609.7,182.4,45.7,16.3
0.217168,456.1,68.9,876.9,40.5,2652.4,470.1,472.5,881.7,2607.5,182.6,45.6,16.3
0.219168,457.8,65.4,879.1,45.6,2642.7,520.5,471.2,884.4,2605.3,182.9,45.6,16.5
0.221168,460.5,60.7,881.9,50.4,2619.6,590.9,469.9,887,2603.4,183.2,45.6,16.8
0.223168,463.6,55.5,885.5,53.9,2593.4,665.7,468.8,889.4,2601.6,183.4,45.5,17.1
0.225168,467.0,50.8,889.5,55.1,2580.6,730.0,467.7,891.5,2600,183.7,45.4,17.4
0.227168,470.5,47.0,893.6,53.9,2586.1,810.8,466.8,893.3,2598.6,183.9,45.3,17.4
0.229168,474.0,45.3,897.0,52.2,2602.8,938.2,466.1,894.9,2597.4,184.1,45.1,17.4
0.231168,477.8,45.9,899.1,51.6,2613.2,1115.2,465.5,896.1,2596.5,184.3,44.9,17.4
0.233168,481.7,48.7,898.7,53.6,2594.3,1238.6,465.1,897,2595.9,184.6,44.6,17.2
0.235168,485.4,53.1,894.8,58.5,2552.9,1222.3,464.9,897.6,2595.5,184.7,44.2,16.8
0.237168,489.1,59.9,885.6,66.7,2507.1,1105.3,464.8,897.7,2595.3,184.9,43.7,16
