time,f1,b1,f2,b2,f3,b3,f1p,f2p,f3p,f0,intensity,harmonicity
0.025866,403.6,148.0,1200.4,696.8,2705.8,2543.8,430.6,1121.6,2600.4,231.4,48.3,16.7
0.027866,422.7,102.7,1188.7,763.1,2689.3,2077.3,430.9,1115.6,2597.7,231.5,49,14.7
0.029866,434.0,75.4,1146.5,839.5,2598.5,1538.4,431.5,1106,2593.3,231.6,49.7,13
0.031866,440.0,58.7,1093.4,860.3,2515.3,1219.6,432.2,1093.1,2587.4,231.6,50.3,12
0.033866,442.3,49.9,1057.4,821.1,2486.9,1102.1,433.1,1077.3,2580.2,231.7,50.9,11.8
0.035866,443.0,46.0,1033.8,768.2,2489.4,1090.7,434.1,1059.2,2572,231.8,51.3,13
0.037866,443.0,45.6,1012.1,729.1,2515.1,1135.6,435.2,1039.6,2563,231.9,51.7,15.2
0.039866,442.4,47.8,989.5,709.9,2550.9,1181.7,436.2,1019.2,2553.7,231.9,51.9,18
0.041866,441.1,51.5,961.5,695.7,2562.9,1171.6,437.1,998.6,2544.4,232,52.1,20.6
0.043866,439.9,55.5,934.3,689.3,2547.9,1118.6,437.9,978.7,2535.4,232.1,52.2,22.6
0.045866,439.4,59.2,912.5,700.5,2537.3,1078.1,438.5,960,2527.2,232.1,52.4,23.9
0.047866,439.4,62.4,896.4,714.5,2536.9,1059.5,438.9,943.2,2519.9,232.2,52.5,24.8
0.049866,438.7,64.6,888.5,704.8,2539.9,1050.6,439,928.7,2513.9,232.2,52.5,25.4
0.051866,436.9,66.5,889.2,671.6,2539.5,1052.1,438.7,917,2509.5,232.2,52.6,25.9
0.053866,434.6,68.7,897.7,645.9,2538.8,1081.3,438.1,908.2,2506.8,232.2,52.5,26.4
0.055866,432.4,72.2,911.7,648.1,2543.4,1149.5,437,902.5,2505.9,232.2,52.5,26.7
0.057866,430.6,77.1,927.8,679.0,2539.6,1253.0,435.6,899.8,2506.9,232.2,52.4,26.8
0.059866,429.0,82.5,938.2,719.4,2497.2,1335.4,433.8,900,2509.7,232.2,52.3,26.9
0.061866,427.2,88.0,940.5,757.0,2433.7,1346.5,431.6,902.7,2514.3,232.2,52.1,27.1
0.063866,425.9,93.6,939.6,791.9,2416.2,1338.3,429.1,907.5,2520.5,232.2,52,27.4
0.065866,425.1,99.2,941.0,823.8,2470.3,1338.2,426.3,914,2528.1,232.1,51.9,28
0.067866,424.1,104.0,943.9,831.0,2564.6,1253.5,423.2,921.6,2536.7,232,51.8,28.8
0.069866,422.5,107.0,948.1,813.1,2611.2,1134.5,420,929.7,2546,232,51.7,29.6
0.071866,420.6,109.0,956.7,788.8,2625.3,1092.6,416.6,937.8,2555.7,231.9,51.7,30.3
0.073866,418.2,109.5,965.6,757.6,2621.1,1115.9,413.2,945.3,2565.4,231.8,51.6,30.6
0.075866,414.8,108.1,967.7,703.1,2584.0,1130.4,409.8,951.6,2574.6,231.6,51.5,30.3
0.077866,410.3,104.4,962.4,626.8,2538.0,1080.5,406.6,956.5,2583,231.5,51.4,29.7
0.079866,405.8,99.8,955.2,552.9,2522.0,1010.0,403.4,959.6,2590.1,231.4,51.3,28.8
0.081866,401.2,94.8,947.9,486.2,2533.9,947.6,400.6,960.6,2595.7,231.2,51.2,28.1
0.083866,397.2,90.6,941.1,435.8,2564.0,905.3,398,959.5,2599.3,231,51.1,27.8
0.085866,394.0,87.3,933.7,397.7,2602.3,874.1,395.8,956.2,2600.8,230.9,51,28.1
0.087866,391.5,84.5,925.0,367.7,2637.4,847.0,394,951,2599.9,230.7,51,28.8
0.089866,390.0,82.4,916.8,346.0,2658.0,827.6,392.6,944.1,2596.5,230.5,50.9,29.6
0.091866,389.3,80.9,909.6,331.2,2661.5,819.4,391.7,935.7,2590.5,230.3,50.8,30.4
0.093866,389.5,80.3,904.0,325.8,2645.5,820.0,391.2,926.4,2582,230.1,50.8,30.8
0.095866,390.3,80.7,898.6,329.1,2610.6,808.6,391.3,916.5,2571.2,229.9,50.7,30.9
0.097866,391.4,81.8,893.2,340.5,2563.6,765.1,391.7,906.5,2558.1,229.7,50.7,30.8
0.099866,392.5,83.5,889.1,358.2,2520.4,699.1,392.6,897,2543,229.5,50.7,30.6
0.101866,393.8,84.7,887.1,380.4,2483.0,627.6,393.9,888.4,2526.2,229.3,50.7,30.3
0.103866,395.3,84.8,886.9,400.9,2455.4,575.9,395.5,881.1,2508.1,229,50.7,30.2
0.105866,397.5,83.7,887.1,418.9,2434.3,548.8,397.5,875.5,2489.2,228.8,50.7,30.2
0.107866,400.4,82.2,887.3,438.3,2416.1,544.5,399.6,871.9,2469.8,228.6,50.7,30.3
0.109866,403.5,80.8,888.1,459.8,2401.4,554.7,402,870.4,2450.4,228.3,50.8,30.4
0.111866,406.6,78.6,890.0,477.4,2390.8,563.6,404.5,871.1,2431.5,228.1,50.8,30.5
0.113866,408.7,74.8,893.0,478.3,2387.4,557.6,407.1,874,2413.5,227.8,50.9,30.4
0.115866,410.1,69.7,896.5,465.7,2391.1,545.5,409.7,879,2396.9,227.6,50.9,30.2
0.117866,411.7,65.1,900.5,456.7,2400.6,554.0,412.2,886,2382,227.3,51,30
0.119866,413.8,62.1,905.1,464.2,2412.0,601.8,414.6,894.6,2369.2,227,51,29.6
0.121866,416.4,60.3,912.1,487.9,2423.4,697.4,416.9,904.5,2358.7,226.8,51.1,29.3
0.123866,419.0,58.8,921.8,517.7,2431.9,821.3,419,915.3,2350.8,226.5,51.1,29.1
0.125866,421.3,56.9,933.5,544.7,2431.7,935.0,420.9,926.7,2345.5,226.2,51.2,29.1
0.127866,423.0,54.5,944.5,564.1,2412.2,975.8,422.5,938.2,2343.1,226,51.2,29.1
0.129866,424.0,52.0,953.5,578.5,2380.1,933.4,423.9,949.5,2343.3,225.7,51.2,29.2
0.131866,424.7,49.7,963.0,598.3,2347.8,870.2,425.1,960.2,2346.2,225.4,51.3,29.2
0.133866,425.3,48.1,972.0,622.2,2324.4,828.3,425.9,970.1,2351.4,225.1,51.3,29.1
0.135866,425.6,46.6,978.6,641.9,2312.4,801.5,426.6,978.9,2358.9,224.8,51.2,28.8
0.137866,425.8,45.2,980.5,649.9,2313.2,773.4,427,986.4,2368.3,224.5,51.2,28.5
0.139866,426.0,44.0,978.0,650.6,2324.5,744.3,427.2,992.5,2379.2,224.2,51.2,28
0.141866,426.4,43.4,972.7,658.5,2344.7,722.2,427.2,997.3,2391.1,224,51.1,27.6
0.143866,427.0,43.4,966.0,677.5,2368.6,707.7,427.1,1000.9,2403.8,223.7,51,27.1
0.145866,427.5,43.6,958.0,703.1,2389.6,690.6,426.8,1003.2,2416.7,223.4,50.9,26.7
0.147866,427.8,43.9,949.9,728.8,2401.2,667.1,426.5,1004.6,2429.3,223.1,50.7,26.3
0.149866,427.8,44.0,946.5,754.1,2404.1,657.6,426.2,1005.1,2441.3,222.8,50.5,25.9
0.151866,427.6,44.2,953.3,795.8,2407.0,689.5,425.8,1005.1,2452.2,222.6,50.3,25.5
0.153866,427.2,45.0,972.1,858.0,2415.1,769.7,425.5,1004.7,2461.7,222.3,50,25
0.155866,426.5,46.6,1003.3,934.9,2435.1,892.5,425.2,1004.1,2469.5,222,49.7,24.4
0.157866,425.4,49.2,1048.2,1001.4,2489.4,1036.8,425,1003.6,2475.2,221.8,49.3,23.6
0.159866,423.6,52.3,1092.2,1003.0,2582.8,1082.6,424.8,1003.2,2478.7,221.6,49,22.9
0.161866,420.7,55.7,1116.8,936.4,2630.7,975.3,424.8,1003.1,2479.9,221.3,48.6,22.2
