time,f1,b1,f2,b2,f3,b3,f1p,f2p,f3p,f0,intensity,harmonicity
0.025231,232.2,488.9,2298.1,774.4,3517.1,235.6,259.3,2626.1,3456.9,206.4,31,-3.4
0.027231,252.2,245.3,2434.8,762.5,3502.5,327.3,260.1,2629.2,3457.6,206.2,32.9,-3
0.029231,251.2,138.6,2583.3,625.4,3504.1,367.9,261.3,2634.4,3458.6,206,34.8,-1.8
0.031231,249.8,89.7,2667.5,456.4,3512.2,350.1,263.1,2641.4,3459.9,205.8,36.4,0.8
0.033231,252.1,72.0,2715.0,325.3,3514.7,314.1,265.3,2650.2,3461.3,205.5,37.8,3.9
0.035231,259.2,75.9,2740.3,240.4,3503.5,291.7,267.9,2660.5,3462.8,205.3,39,7.2
0.037231,270.2,91.9,2750.2,203.0,3476.7,294.9,271,2672.1,3464,205,39.9,10
0.039231,281.4,109.6,2753.6,195.2,3441.5,310.4,274.4,2684.7,3464.9,204.7,40.8,11.9
0.041231,290.4,126.3,2758.6,198.0,3413.4,325.7,278.1,2698.1,3465.1,204.4,41.5,13.2
0.043231,298.6,144.2,2767.9,201.0,3397.9,339.5,282.2,2711.9,3464.6,204.1,42.2,14.1
0.045231,308.7,160.8,2779.8,202.3,3389.0,345.8,286.4,2725.9,3463,203.8,42.7,14.8
0.047231,318.6,169.6,2793.6,204.1,3383.0,340.3,290.9,2739.7,3460.1,203.4,43.3,15.6
0.049231,323.0,171.3,2809.7,209.2,3380.8,336.1,295.5,2753.1,3455.9,203.1,43.7,16.7
0.051231,320.8,170.8,2824.3,218.4,3380.9,345.6,300.3,2765.7,3450.2,202.7,44.1,18
0.053231,316.8,168.9,2830.9,231.2,3377.6,364.3,305.1,2777.2,3442.7,202.3,44.5,19.4
0.055231,316.2,166.2,2828.6,247.7,3367.8,381.9,309.9,2787.5,3433.6,201.9,44.9,20.7
0.057231,318.2,163.1,2826.4,267.1,3361.9,407.8,314.6,2796.3,3422.6,201.4,45.2,21.7
0.059231,318.2,160.5,2831.5,287.0,3369.3,463.4,319.4,2803.5,3409.8,201,45.6,22.1
0.061231,315.5,158.6,2837.6,299.6,3388.6,544.6,324,2808.9,3395.3,200.5,45.8,21.9
0.063231,312.8,157.1,2836.0,300.1,3414.4,626.1,328.5,2812.4,3379.2,200,46.1,21.4
0.065231,312.5,156.9,2828.3,292.2,3440.0,687.1,332.8,2813.9,3361.6,199.5,46.3,20.8
0.067231,315.9,158.5,2817.3,287.2,3445.2,711.6,336.9,2813.5,3342.6,199,46.5,20.3
0.069231,322.7,161.2,2798.3,293.6,3417.8,709.7,340.9,2811.3,3322.6,198.5,46.7,20.1
0.071231,330.7,164.9,2768.3,298.3,3384.5,724.1,344.6,2807.2,3301.7,197.9,46.9,20.2
0.073231,338.6,170.0,2738.1,277.9,3366.1,811.8,348.1,2801.4,3280.3,197.3,47.1,20.3
0.075231,345.1,175.7,2722.6,235.5,3351.4,961.0,351.4,2794.2,3258.6,196.7,47.2,20.4
0.077231,351.3,179.1,2718.3,201.2,3310.3,998.6,354.4,2785.6,3237,196.1,47.3,20.6
0.079231,359.8,176.5,2713.7,187.2,3245.4,846.6,357.2,2775.9,3215.7,195.5,47.4,20.6
0.081231,368.9,167.8,2704.8,182.9,3188.5,654.4,359.8,2765.4,3195.2,194.9,47.5,20.6
0.083231,375.9,157.0,2693.4,182.0,3147.2,511.2,362.1,2754.3,3175.7,194.2,47.6,20.6
0.085231,379.9,149.1,2682.1,186.1,3119.3,426.4,364.2,2742.9,3157.5,193.6,47.6,20.6
0.087231,380.7,148.0,2673.2,197.9,3103.1,392.8,366.1,2731.5,3140.8,192.9,47.6,20.6
0.089231,378.4,154.1,2670.6,218.3,3093.5,401.6,367.8,2720.3,3125.9,192.2,47.6,20.6
0.091231,373.1,164.3,2678.3,243.9,3079.3,443.4,369.3,2709.6,3113,191.5,47.6,20.6
0.093231,365.9,174.5,2698.1,264.5,3050.0,507.8,370.6,2699.6,3102.1,190.8,47.6,20.6
0.095231,359.3,182.0,2723.0,266.8,3012.2,575.3,371.8,2690.6,3093.5,190.1,47.5,20.6
0.097231,355.4,186.3,2738.6,252.6,2990.0,611.7,372.8,2682.7,3087,189.4,47.4,20.4
0.099231,356.1,188.0,2738.7,237.1,2996.3,594.2,373.7,2676.2,3082.8,188.7,47.3,20
0.101231,361.7,188.3,2728.7,218.7,3023.8,548.6,374.5,2671.1,3080.7,188,47.1,19.4
0.103231,370.8,188.0,2717.2,195.5,3057.2,510.7,375.1,2667.5,3080.6,187.3,46.9,18.6
0.105231,380.6,188.4,2708.5,175.7,3086.0,492.4,375.7,2665.4,3082.4,186.5,46.6,17.8
0.107231,387.7,189.9,2704.3,164.3,3107.1,490.7,376.1,2665,3085.9,185.9,46.3,17
0.109231,390.4,191.4,2704.4,159.8,3121.9,491.1,376.4,2666.1,3090.7,185.2,45.9,16.4
0.111231,390.2,189.6,2706.4,156.1,3134.1,469.4,376.6,2668.6,3096.7,184.5,45.5,15.9
0.113231,388.1,181.2,2708.4,147.9,3148.1,420.8,376.7,2672.6,3103.6,183.8,45,15.4
0.115231,384.4,166.5,2710.5,135.8,3165.8,366.2,376.8,2677.7,3110.9,183.2,44.5,15
0.117231,380.4,147.3,2712.1,125.2,3181.4,321.4,376.7,2683.9,3118.5,182.6,44,14.5
0.119231,377.5,126.7,2711.0,119.1,3189.9,290.1,376.6,2691,3126.1,182,43.6,14
0.121231,376.5,108.3,2707.5,118.3,3190.7,271.8,376.4,2698.6,3133.2,181.4,43.1,13.4
0.123231,376.0,94.0,2703.8,123.7,3184.7,266.9,376,2706.7,3139.6,180.9,42.7,12.8
0.125231,375.2,84.2,2701.3,136.2,3171.7,272.4,375.6,2714.9,3145.1,180.3,42.4,12.2
0.127231,373.9,79.0,2699.1,154.8,3152.4,279.2,375.1,2723,3149.5,179.8,42.2,11.9
0.129231,372.3,77.7,2698.0,174.5,3133.3,286.1,374.5,2730.7,3152.4,179.4,42.2,11.8
0.131231,369.7,79.4,2703.6,187.6,3122.5,310.1,373.9,2737.8,3153.8,178.9,42.2,12
0.133231,366.5,83.8,2717.6,186.8,3121.1,362.6,373.1,2744,3153.6,178.5,42.4,12.4
0.135231,364.3,91.0,2732.0,173.4,3125.1,428.5,372.3,2749.2,3151.7,178.1,42.6,12.9
0.137231,364.0,99.6,2740.4,160.5,3125.1,475.5,371.4,2753,3148.1,177.8,42.9,13.5
0.139231,365.6,107.2,2741.7,159.9,3113.6,470.2,370.4,2755.4,3142.7,177.5,43.2,14.2
0.141231,368.2,111.6,2733.2,170.6,3101.0,393.7,369.3,2756.1,3135.7,177.2,43.5,15.1
0.143231,370.3,112.5,2717.4,174.7,3101.9,295.8,368.3,2755.1,3127.2,176.9,43.8,16.1
0.145231,370.4,111.3,2707.0,166.7,3106.8,235.9,367.1,2752.2,3117.3,176.7,44.1,17.1
0.147231,367.9,109.0,2706.0,156.6,3105.8,219.3,365.9,2747.3,3106.2,176.5,44.2,17.9
0.149231,363.7,106.0,2710.0,149.7,3096.9,233.3,364.7,2740.6,3094,176.3,44.4,18.3
0.151231,359.6,102.7,2713.2,147.0,3081.6,262.3,363.5,2731.9,3081.1,176.1,44.4,18.4
0.153231,356.9,99.6,2712.1,147.8,3063.7,286.3,362.3,2721.3,3067.5,176,44.4,18.2
0.155231,356.5,97.1,2705.8,152.4,3046.3,291.9,361.1,2708.9,3053.7,175.9,44.4,17.9
0.157231,357.2,93.8,2694.8,159.0,3030.6,280.1,359.9,2694.7,3039.7,175.7,44.4,17.9
0.159231,357.4,88.6,2680.6,162.9,3018.1,261.0,358.7,2679,3025.8,175.6,44.3,18.1
0.161231,357.2,82.1,2665.2,161.4,3008.3,241.2,357.6,2661.9,3012.2,175.5,44.3,18.5
0.163231,357.3,76.0,2649.8,155.8,2999.9,222.2,356.5,2643.5,2999.2,175.5,44.3,19
0.165231,358.2,71.4,2635.1,148.4,2993.3,207.2,355.5,2624,2986.7,175.4,44.3,19.6
0.167231,359.3,68.3,2620.6,140.8,2988.2,199.0,354.5,2603.7,2975.2,175.3,44.3,20.2
0.169231,359.9,66.0,2606.8,134.2,2983.4,198.9,353.6,2582.9,2964.5,175.2,44.4,20.8
0.171231,359.2,64.1,2595.7,130.3,2976.8,206.2,352.7,2561.7,2954.8,175.2,44.5,21.4
0.173231,357.8,62.4,2585.6,130.7,2966.0,215.7,351.9,2540.3,2946.1,175.1,44.7,22.1
0.175231,356.3,61.0,2573.4,134.8,2952.8,223.3,351.2,2519.1,2938.5,175,44.8,22.7
0.177231,354.7,59.6,2557.0,142.2,2941.2,232.7,350.6,2498.3,2932,175,45,23.2
0.179231,353.3,58.2,2536.3,150.8,2933.1,245.7,350,2478.2,2926.4,174.9,45.2,23.3
0.181231,352.4,56.5,2514.0,157.7,2928.7,260.5,349.5,2458.9,2921.8,174.8,45.3,23.4
0.183231,352.0,54.5,2491.6,164.1,2926.8,276.7,349,2440.7,2918.1,174.8,45.4,23.3
0.185231,351.6,51.8,2467.2,171.9,2926.1,296.5,348.7,2423.8,2915.1,174.7,45.4,23
0.187231,350.4,47.9,2440.2,180.6,2926.6,319.1,348.3,2408.4,2912.9,174.6,45.4,22.4
0.189231,348.6,42.7,2412.3,190.9,2925.6,339.6,348.1,2394.6,2911.2,174.5,45.2,21.6
0.191231,346.7,37.4,2384.4,203.2,2918.9,350.0,347.8,2382.7,2909.9,174.4,45,20.6
0.193231,345.0,33.2,2355.7,213.2,2905.8,341.0,347.7,2372.8,2909.1,174.3,44.6,19.4
0.195231,343.3,30.2,2325.1,217.4,2892.0,314.0,347.5,2365,2908.5,174.2,44,17.9
0.197231,341.8,28.9,2292.6,216.9,2883.6,279.0,347.4,2359.3,2908.1,174.1,43.3,16.3
0.199231,340.6,30.5,2261.1,217.6,2880.5,250.2,347.4,2355.9,2907.9,174,42.5,14.3
0.201231,339.6,35.9,2234.9,238.5,2879.1,247.8,347.4,2354.8,2907.9,173.9,41.4,12.1
