time,f1,b1,f2,b2,f3,b3,f1p,f2p,f3p,f0,intensity,harmonicity
0.025943,291.7,55.9,2188.1,310.2,2816.9,302.4,335.7,2267.7,2615.2,197.6,43.5,11.6
0.027943,301.8,61.8,2217.7,358.0,2774.6,528.3,336.2,2264.1,2614.1,197.9,44.4,12.4
0.029943,310.8,66.6,2259.9,371.0,2676.9,865.6,337,2258.2,2612.4,198.2,45.3,13.3
0.031943,319.7,72.3,2281.7,309.3,2623.0,1178.6,338.1,2249.9,2610,198.5,46.1,14.1
0.033943,328.7,80.0,2270.5,268.2,2666.4,1098.9,339.4,2239.3,2606.9,198.7,46.9,15
0.035943,338.5,88.6,2251.1,257.5,2668.1,788.5,341.1,2226.5,2603.3,199,47.7,15.9
0.037943,347.9,94.4,2222.7,252.8,2639.4,526.4,343,2211.5,2599,199.3,48.4,16.8
0.039943,354.7,95.0,2190.5,239.5,2612.7,379.3,345.1,2194.4,2594.1,199.5,49.1,17.8
0.041943,359.7,91.9,2156.9,220.2,2587.6,299.0,347.5,2175.2,2588.8,199.8,49.7,18.8
0.043943,364.2,88.5,2122.9,193.2,2564.8,244.0,350,2154.2,2582.9,200,50.3,19.6
0.045943,368.8,85.1,2092.7,163.9,2545.3,204.4,352.7,2131.3,2576.6,200.2,50.8,20.4
0.047943,372.7,80.7,2069.3,142.1,2528.7,182.4,355.6,2106.7,2569.9,200.4,51.2,21
0.049943,375.8,76.1,2053.1,130.6,2514.1,173.2,358.5,2080.5,2562.8,200.5,51.7,21.6
0.051943,378.6,71.4,2040.2,129.4,2497.5,171.7,361.5,2052.8,2555.4,200.6,52,22.1
0.053943,380.9,66.5,2029.3,143.0,2478.5,177.6,364.6,2023.8,2547.8,200.7,52.4,22.6
0.055943,382.5,61.5,2018.1,176.6,2458.8,186.6,367.6,1993.5,2540.1,200.8,52.7,22.9
0.057943,383.8,56.9,2002.5,232.8,2440.4,189.5,370.7,1962.2,2532.1,200.8,53,23.2
0.059943,385.0,53.1,1975.8,298.3,2426.9,179.4,373.7,1929.9,2524.1,200.8,53.3,23.5
0.061943,386.3,49.4,1932.1,352.9,2419.3,161.7,376.6,1896.9,2516.1,200.7,53.5,23.7
0.063943,387.4,45.9,1883.7,376.8,2417.0,149.8,379.5,1863.2,2508.1,200.7,53.8,23.8
0.065943,388.4,42.7,1844.0,381.0,2416.8,149.2,382.2,1829,2500.2,200.6,54,24
0.067943,389.6,40.3,1817.6,382.7,2417.8,156.0,384.7,1794.4,2492.5,200.4,54.3,24.2
0.069943,390.9,38.8,1802.5,392.0,2419.8,161.3,387.1,1759.6,2484.9,200.2,54.5,24.4
0.071943,392.3,37.8,1789.9,416.7,2421.6,160.5,389.3,1724.7,2477.6,200,54.7,24.6
0.073943,393.2,36.7,1767.7,457.1,2421.7,155.4,391.2,1689.9,2470.5,199.8,55,24.6
0.075943,393.4,35.2,1722.9,493.6,2421.4,148.3,393,1655.3,2463.7,199.5,55.2,24.5
0.077943,393.2,33.3,1658.0,494.1,2423.8,138.9,394.5,1621,2457.3,199.2,55.4,24.2
0.079943,392.8,31.4,1591.6,460.2,2428.9,131.1,395.8,1587.1,2451.3,198.9,55.6,23.8
0.081943,392.3,29.5,1527.6,412.7,2436.3,132.5,396.8,1553.7,2445.7,198.5,55.9,23.5
0.083943,391.5,27.9,1474.2,371.7,2447.1,152.2,397.6,1521.1,2440.6,198.2,56.1,23.2
0.085943,390.8,26.8,1430.4,338.8,2465.7,188.2,398.2,1489.1,2435.9,197.8,56.3,23.1
0.087943,390.1,26.0,1391.1,302.2,2488.3,211.4,398.5,1458.1,2431.6,197.4,56.5,23.3
0.089943,389.6,25.5,1357.1,259.9,2500.5,206.1,398.6,1427.9,2427.9,196.9,56.6,23.6
0.091943,389.2,25.4,1330.0,212.5,2501.8,193.9,398.5,1398.8,2424.6,196.5,56.7,23.9
0.093943,389.3,25.9,1313.5,170.3,2497.0,189.5,398.2,1370.7,2421.9,196,56.8,24
0.095943,389.7,26.8,1304.5,138.5,2487.9,184.2,397.7,1343.8,2419.6,195.5,56.8,24
0.097943,390.2,28.1,1298.7,115.9,2476.2,162.5,397.1,1318.1,2417.9,195,56.8,23.8
0.099943,390.6,29.6,1293.1,100.7,2466.8,134.4,396.3,1293.6,2416.6,194.4,56.8,23.5
0.101943,390.7,31.4,1284.7,91.7,2461.8,114.1,395.5,1270.4,2415.8,193.9,56.7,23.1
0.103943,390.4,33.4,1272.8,89.2,2461.3,108.3,394.5,1248.4,2415.4,193.4,56.6,22.8
0.105943,390.1,35.7,1257.5,91.5,2465.3,117.0,393.5,1227.8,2415.5,192.8,56.4,22.5
0.107943,389.9,38.4,1239.0,95.5,2473.7,140.1,392.5,1208.4,2416,192.2,56.3,22.2
0.109943,389.6,41.1,1218.2,99.3,2483.4,173.8,391.4,1190.4,2416.8,191.6,56,21.9
0.111943,388.3,43.4,1192.4,104.0,2487.2,216.7,390.4,1173.6,2418.1,191,55.8,21.6
0.113943,385.9,44.9,1163.0,107.7,2476.7,259.2,389.5,1158.1,2419.6,190.5,55.4,21.3
0.115943,383.6,46.5,1134.6,103.8,2455.1,300.0,388.6,1143.8,2421.5,189.9,55.1,20.8
0.117943,382.2,49.5,1113.2,93.0,2433.1,354.7,387.9,1130.8,2423.7,189.3,54.7,20.3
0.119943,382.2,54.9,1100.8,80.7,2417.1,420.4,387.3,1118.9,2426.1,188.7,54.2,19.8
0.121943,383.8,63.3,1093.7,69.2,2404.2,474.0,386.9,1108.1,2428.7,188.1,53.7,19.2
0.123943,386.3,73.2,1088.7,60.9,2394.1,487.3,386.6,1098.4,2431.5,187.5,53.2,18.6
0.125943,388.7,82.5,1084.2,55.5,2390.3,469.1,386.6,1089.8,2434.4,186.9,52.6,18
0.127943,391.2,91.0,1080.3,52.1,2394.4,439.3,386.7,1082.1,2437.5,186.3,52.1,17.3
0.129943,394.7,100.2,1078.1,50.3,2404.0,411.8,387.2,1075.3,2440.7,185.7,51.6,16.5
0.131943,400.6,111.4,1077.8,49.7,2416.1,394.2,387.8,1069.3,2443.9,185.1,51.1,15.8
0.133943,408.3,118.9,1078.4,50.1,2426.2,401.2,388.8,1064.1,2447.2,184.5,50.8,15.2
0.135943,413.6,116.1,1077.4,51.6,2432.9,435.0,390,1059.6,2450.5,184,50.6,15
0.137943,412.9,104.2,1072.7,54.5,2438.3,482.9,391.5,1055.8,2453.7,183.4,50.6,15
0.139943,408.2,89.4,1064.6,58.1,2442.8,527.1,393.2,1052.6,2457,182.8,50.6,15.3
0.141943,403.6,77.3,1057.2,60.3,2442.1,560.6,395.3,1049.8,2460.1,182.3,50.8,15.6
0.143943,399.8,68.2,1053.7,61.2,2433.2,619.2,397.6,1047.6,2463.3,181.8,50.9,15.8
0.145943,397.1,62.6,1054.1,62.0,2410.1,725.5,400.1,1045.7,2466.3,181.2,51,15.8
0.147943,395.5,60.0,1054.7,62.4,2389.7,788.9,403,1044.1,2469.2,180.7,51.1,15.8
0.149943,395.8,60.8,1053.7,60.6,2407.8,685.6,406,1042.8,2472,180.2,51.1,15.6
0.151943,397.5,64.9,1051.2,58.3,2437.0,522.3,409.3,1041.7,2474.7,179.7,51,15.5
0.153943,399.9,71.9,1047.6,57.2,2454.6,429.7,412.8,1040.8,2477.3,179.3,50.8,15.4
0.155943,403.3,81.9,1043.4,57.6,2467.3,419.8,416.4,1040,2479.7,178.8,50.6,15.3
0.157943,407.9,95.2,1039.5,59.0,2481.2,467.5,420.3,1039.3,2482,178.3,50.3,15.1
0.159943,414.0,109.4,1036.3,60.0,2500.0,515.5,424.2,1038.6,2484.2,177.9,50.1,14.9
0.161943,422.1,123.0,1033.0,60.6,2521.5,513.5,428.3,1037.9,2486.2,177.4,49.8,14.8
0.163943,429.9,132.3,1029.3,61.7,2533.2,468.8,432.5,1037.2,2488,177,49.7,15
0.165943,436.1,136.5,1025.2,63.3,2530.8,411.3,436.7,1036.4,2489.7,176.6,49.6,15.6
0.167943,442.1,137.3,1021.8,64.6,2518.8,350.4,441,1035.6,2491.3,176.2,49.5,16.8
0.169943,449.4,136.0,1020.2,64.2,2504.1,295.1,445.3,1034.7,2492.7,175.8,49.5,18.3
0.171943,456.3,132.6,1020.4,62.2,2491.4,258.2,449.5,1033.7,2494,175.4,49.4,19.8
0.173943,461.8,127.6,1022.3,59.9,2481.7,236.5,453.8,1032.6,2495.2,175,49.4,20.8
0.175943,464.2,121.8,1024.8,57.2,2478.0,226.1,457.9,1031.3,2496.2,174.6,49.3,21.1
0.177943,464.2,114.9,1027.0,53.4,2482.2,222.8,462,1030,2497.1,174.3,49.3,20.8
0.179943,464.2,107.8,1028.4,49.2,2491.2,220.5,466,1028.6,2497.9,173.9,49.3,20
0.181943,465.7,100.9,1028.5,45.3,2501.1,212.0,469.8,1027.1,2498.5,173.6,49.4,19.2
0.183943,469.0,95.3,1027.2,42.8,2508.9,199.7,473.5,1025.5,2499,173.3,49.4,18.4
0.185943,474.3,91.1,1025.2,41.7,2513.7,190.9,477,1023.8,2499.4,173,49.5,18
0.187943,480.9,87.1,1023.0,40.9,2514.6,190.7,480.4,1022.2,2499.6,172.7,49.6,17.7
0.189943,488.5,82.8,1021.1,39.3,2510.7,204.1,483.5,1020.5,2499.8,172.4,49.7,17.6
0.191943,495.6,79.2,1019.8,37.6,2502.5,238.3,486.5,1018.8,2499.7,172.1,49.8,17.5
0.193943,500.7,77.7,1018.8,37.2,2490.9,308.7,489.2,1017.1,2499.6,171.8,50,17.5
0.195943,502.2,78.4,1018.0,38.8,2481.2,417.9,491.8,1015.5,2499.3,171.6,50.1,17.7
0.197943,501.4,79.1,1017.3,41.2,2479.9,542.5,494.1,1014,2498.9,171.3,50.3,18
0.199943,500.2,77.9,1016.3,42.0,2493.0,646.2,496.3,1012.6,2498.3,171.1,50.5,18.5
0.201943,499.8,75.1,1015.2,40.3,2519.4,715.8,498.2,1011.3,2497.6,170.9,50.7,19
0.203943,499.9,71.2,1014.0,37.0,2548.2,759.4,499.9,1010.2,2496.7,170.6,50.9,19.4
0.205943,499.9,67.1,1012.7,33.7,2554.0,752.2,501.4,1009.3,2495.7,170.4,51.1,19.5
0.207943,499.8,63.4,1011.6,31.3,2533.1,685.7,502.8,1008.7,2494.4,170.2,51.2,19.2
0.209943,500.2,60.5,1010.9,29.9,2508.8,606.9,504,1008.2,2493,170.1,51.3,18.9
0.211943,501.3,57.7,1010.7,28.6,2492.2,542.3,505,1008.1,2491.5,169.9,51.4,18.5
0.213943,502.6,55.2,1011.3,27.4,2486.1,495.4,505.8,1008.2,2489.7,169.7,51.6,18.4
0.215943,503.8,53.7,1012.2,26.7,2487.6,460.4,506.5,1008.6,2487.7,169.6,51.7,18.6
0.217943,503.6,53.2,1012.7,26.9,2492.1,435.1,507.1,1009.3,2485.5,169.4,51.9,19.3
0.219943,502.0,53.3,1012.4,28.1,2495.7,417.5,507.6,1010.4,2483.2,169.3,52,20.2
0.221943,500.0,53.5,1011.6,29.9,2498.5,408.3,508,1011.8,2480.6,169.2,52.2,21.1
0.223943,498.6,53.4,1011.0,32.0,2500.8,399.4,508.3,1013.6,2477.8,169.1,52.3,21.8
0.225943,498.7,53.3,1010.7,34.0,2499.7,385.1,508.6,1015.7,2474.7,169,52.5,22.2
0.227943,499.9,53.1,1010.7,36.2,2492.9,369.1,508.8,1018.2,2471.5,168.9,52.6,22.3
0.229943,500.9,52.5,1011.2,39.3,2481.9,358.1,509,1021,2468.1,168.8,52.6,22.2
0.231943,501.5,51.7,1012.0,43.3,2469.6,351.6,509.2,1024.2,2464.4,168.7,52.7,22.1
0.233943,502.2,51.4,1013.6,48.4,2457.2,345.1,509.4,1027.7,2460.6,168.7,52.7,22
0.235943,503.6,51.5,1017.3,53.3,2447.1,342.2,509.6,1031.5,2456.5,168.7,52.7,22.1
0.237943,505.8,51.9,1023.2,57.7,2438.2,348.2,509.9,1035.6,2452.3,168.7,52.7,22.2
0.239943,508.1,52.1,1030.2,61.5,2429.5,359.7,510.1,1040,2447.9,168.7,52.7,22.4
0.241943,510.7,51.9,1038.2,64.7,2419.6,368.1,510.4,1044.6,2443.4,168.7,52.6,22.6
0.243943,513.3,51.4,1046.3,66.9,2408.5,362.8,510.8,1049.5,2438.7,168.7,52.6,22.8
0.245943,516.3,51.1,1054.3,68.3,2397.7,343.6,511.2,1054.7,2433.9,168.8,52.5,23
0.247943,518.9,51.1,1062.4,68.8,2389.4,322.0,511.7,1059.9,2429,168.8,52.4,23.3
0.249943,520.4,51.5,1070.5,69.6,2383.7,311.5,512.2,1065.4,2424,168.9,52.3,23.6
0.251943,521.3,52.3,1078.2,70.8,2380.0,312.7,512.8,1070.9,2419,169,52.2,23.8
0.253943,522.4,53.3,1086.6,71.6,2376.0,315.8,513.4,1076.6,2413.9,169.1,52.1,24.1
0.255943,524.2,54.3,1095.5,71.3,2370.4,310.3,514.1,1082.2,2408.9,169.2,52.1,24.4
0.257943,526.7,55.2,1104.7,69.9,2363.1,292.1,514.8,1087.9,2403.8,169.3,52,24.7
0.259943,529.4,55.9,1113.3,67.3,2355.1,268.2,515.6,1093.6,2398.8,169.5,51.9,25
0.261943,531.5,56.5,1120.4,64.5,2348.0,248.4,516.4,1099.2,2393.9,169.6,51.9,25.2
0.263943,532.7,57.8,1126.2,63.3,2345.8,235.9,517.2,1104.6,2389.2,169.7,51.8,25.3
0.265943,531.2,59.0,1129.8,66.4,2354.9,241.9,518,1110,2384.5,169.9,51.8,25.2
0.267943,527.5,57.8,1130.1,73.0,2371.6,272.8,518.9,1115.1,2380,170,51.7,24.8
0.269943,524.1,54.1,1128.3,78.1,2388.0,322.6,519.7,1120,2375.7,170.2,51.7,24.3
0.271943,522.3,51.0,1127.5,79.7,2403.4,361.0,520.5,1124.7,2371.7,170.4,51.7,23.8
0.273943,521.7,49.3,1128.7,80.1,2420.9,371.8,521.3,1129.1,2367.9,170.5,51.6,23.2
0.275943,521.5,48.6,1130.9,80.4,2433.1,357.2,522.1,1133.2,2364.3,170.7,51.6,22.7
0.277943,521.2,47.5,1133.3,80.4,2434.9,327.0,522.8,1136.9,2361.1,170.8,51.5,22.3
0.279943,520.6,46.1,1135.5,80.6,2426.0,284.9,523.4,1140.3,2358.2,171,51.4,21.9
0.281943,520.1,45.5,1137.3,82.6,2408.1,235.5,524,1143.2,2355.7,171.1,51.4,21.4
0.283943,519.7,46.0,1138.7,88.0,2383.6,184.5,524.5,1145.8,2353.5,171.2,51.3,20.6
0.285943,518.9,47.0,1139.3,98.7,2362.7,153.1,524.9,1147.9,2351.7,171.4,51.1,19.4
0.287943,516.2,46.5,1135.9,116.9,2351.8,154.2,525.3,1149.5,2350.2,171.5,51,17.7
0.289943,512.8,44.9,1130.3,135.4,2345.2,175.2,525.5,1150.7,2349.2,171.6,50.7,15.8
0.291943,510.4,44.7,1132.5,146.4,2328.4,191.2,525.6,1151.4,2348.6,171.7,50.3,13.7
0.293943,508.4,45.5,1145.2,146.6,2300.1,194.4,525.7,1151.7,2348.4,171.8,49.8,11.8
