time,f1,b1,f2,b2,f3,b3,f1p,f2p,f3p,f0,intensity,harmonicity
0.025234,354.0,144.2,1939.5,148.9,2403.1,125.7,411.7,1974.4,2392.3,209.1,49.8,16.6
0.027234,375.2,117.0,1932.9,118.1,2399.6,110.4,411.7,1973.5,2392.5,209.2,50.1,13.6
0.029234,391.0,90.3,1928.2,95.5,2405.2,91.3,411.7,1972,2392.7,209.4,50.4,12.6
0.031234,401.1,69.1,1927.0,81.3,2417.2,77.0,411.7,1969.9,2393,209.5,50.9,12.5
0.033234,406.5,56.4,1930.1,75.0,2430.2,71.3,411.7,1967.2,2393.4,209.6,51.3,13
0.035234,410.4,48.6,1934.9,70.9,2442.1,71.4,411.8,1963.9,2393.8,209.7,51.8,13.7
0.037234,413.5,44.0,1936.6,67.4,2450.6,75.0,411.8,1960,2394.4,209.8,52.2,14.4
0.039234,415.7,41.1,1934.7,65.3,2455.0,81.3,411.8,1955.5,2394.9,210,52.6,15.2
0.041234,417.4,38.9,1930.8,64.7,2455.6,91.3,411.9,1950.3,2395.6,210.1,52.9,16.3
0.043234,418.7,37.4,1926.7,65.5,2452.6,105.4,411.9,1944.5,2396.3,210.2,53.1,17.5
0.045234,419.9,36.6,1923.1,67.7,2445.2,126.6,412,1938.1,2397,210.3,53.3,18.8
0.047234,421.0,36.2,1920.3,71.6,2433.3,155.2,412,1931,2397.8,210.3,53.5,20.1
0.049234,421.9,36.1,1918.5,76.6,2418.4,185.2,412,1923.2,2398.6,210.4,53.6,21.4
0.051234,422.7,36.1,1916.5,82.2,2402.2,210.0,412.1,1914.8,2399.5,210.5,53.8,22.8
0.053234,423.2,36.0,1914.3,87.1,2390.6,221.5,412.1,1905.8,2400.3,210.5,53.9,24.2
0.055234,423.4,35.9,1911.5,91.6,2385.4,225.7,412.1,1896,2401.2,210.5,54,25.4
0.057234,423.4,35.6,1908.6,96.9,2385.6,231.0,412.2,1885.6,2402,210.5,54.2,26.3
0.059234,423.1,34.9,1905.1,103.9,2385.5,240.6,412.2,1874.5,2402.9,210.5,54.3,26.8
0.061234,422.3,33.8,1900.0,114.6,2379.0,255.7,412.2,1862.8,2403.7,210.4,54.5,26.9
0.063234,421.3,32.5,1893.2,130.0,2363.7,274.4,412.2,1850.4,2404.5,210.3,54.6,26.9
0.065234,420.2,31.0,1883.6,154.3,2338.1,295.3,412.1,1837.3,2405.2,210.2,54.8,26.8
0.067234,419.1,29.4,1870.5,187.9,2308.0,310.6,412.1,1823.5,2405.9,210.1,54.9,26.8
0.069234,418.1,28.2,1854.2,223.4,2284.5,312.7,412.1,1809.1,2406.6,210,55.1,26.9
0.071234,417.3,27.4,1834.6,251.3,2275.9,300.1,412,1794.1,2407.2,209.8,55.2,27
0.073234,416.8,27.0,1816.8,259.4,2285.5,278.0,412,1778.5,2407.7,209.6,55.4,27.1
0.075234,416.5,27.0,1801.0,250.9,2308.2,248.6,411.9,1762.2,2408.2,209.4,55.5,27.3
0.077234,416.4,27.1,1786.8,235.3,2335.6,217.0,411.8,1745.4,2408.6,209.1,55.6,27.4
0.079234,416.3,27.1,1773.2,223.0,2360.4,189.2,411.7,1728,2409,208.8,55.8,27.7
0.081234,416.1,27.1,1757.5,217.1,2382.6,164.4,411.6,1710.1,2409.3,208.5,55.9,28
0.083234,415.8,26.9,1741.1,218.9,2399.6,144.3,411.5,1691.7,2409.5,208.2,56.1,28.3
0.085234,415.4,26.7,1721.5,228.5,2413.2,125.9,411.3,1672.8,2409.6,207.9,56.2,28.5
0.087234,414.9,26.4,1697.6,246.0,2422.8,110.4,411.2,1653.5,2409.7,207.5,56.4,28.5
0.089234,414.4,26.0,1669.0,268.9,2428.9,98.5,411,1633.8,2409.8,207.1,56.6,28.4
0.091234,413.7,25.3,1632.9,295.3,2433.1,88.5,410.9,1613.7,2409.8,206.7,56.8,28.1
0.093234,413.1,24.5,1595.4,312.8,2436.3,80.7,410.7,1593.4,2409.7,206.2,57,27.8
0.095234,412.5,23.3,1557.1,316.8,2439.3,74.8,410.6,1572.8,2409.6,205.8,57.3,27.3
0.097234,411.9,22.1,1522.4,307.8,2441.9,71.4,410.4,1552,2409.4,205.3,57.5,26.9
0.099234,411.2,21.0,1493.2,291.9,2442.5,69.5,410.3,1531,2409.2,204.8,57.8,26.3
0.101234,410.5,20.0,1465.2,271.7,2440.3,68.6,410.2,1510,2409.1,204.3,58.1,25.6
0.103234,409.7,19.1,1438.9,250.2,2436.8,69.5,410,1488.9,2408.8,203.7,58.3,24.9
0.105234,408.8,18.3,1411.9,223.4,2434.6,73.8,409.9,1467.8,2408.6,203.1,58.6,24.2
0.107234,407.9,17.7,1390.4,193.9,2434.8,82.6,409.8,1446.7,2408.4,202.6,58.8,23.6
0.109234,407.2,17.7,1377.3,168.6,2435.3,94.5,409.8,1425.8,2408.3,202,59.1,23
0.111234,406.8,18.3,1367.3,148.1,2433.5,106.2,409.7,1405,2408.1,201.3,59.3,22.4
0.113234,406.5,19.4,1356.4,131.6,2430.1,111.4,409.7,1384.4,2408,200.7,59.5,21.9
0.115234,406.4,20.8,1342.0,114.4,2428.0,112.0,409.7,1364.2,2408,200,59.6,21.4
0.117234,406.7,22.2,1326.6,98.0,2429.6,113.8,409.8,1344.2,2408,199.4,59.8,21.2
0.119234,407.2,23.5,1312.8,86.3,2434.5,122.0,409.9,1324.6,2408,198.7,59.9,21.2
0.121234,407.6,24.8,1299.1,80.4,2441.7,140.8,410,1305.4,2408.2,198,60,21.4
0.123234,407.7,26.2,1285.1,81.4,2448.1,169.0,410.2,1286.8,2408.5,197.3,60,21.7
0.125234,407.1,27.6,1267.0,88.1,2451.7,205.1,410.4,1268.6,2408.8,196.5,60,22
0.127234,405.8,28.8,1243.5,96.4,2451.7,234.8,410.7,1250.9,2409.3,195.8,59.9,22
0.129234,404.3,29.6,1217.0,100.4,2452.3,241.0,411.1,1233.9,2409.9,195,59.8,21.8
0.131234,402.6,30.2,1188.9,96.8,2455.3,223.5,411.5,1217.4,2410.6,194.2,59.6,21.4
0.133234,401.0,30.9,1166.8,87.2,2455.2,202.5,412,1201.6,2411.4,193.5,59.4,20.9
0.135234,399.5,32.2,1151.7,74.7,2447.2,191.9,412.6,1186.5,2412.4,192.7,59.1,20.3
0.137234,398.4,34.4,1143.1,63.1,2432.3,194.1,413.2,1172.1,2413.5,191.9,58.7,19.8
0.139234,398.0,37.6,1137.4,53.3,2416.6,201.6,413.9,1158.3,2414.8,191.1,58.3,19.2
0.141234,398.7,42.4,1131.8,43.8,2402.6,212.7,414.7,1145.3,2416.2,190.2,57.8,18.5
0.143234,400.7,48.5,1126.0,36.3,2391.2,233.3,415.6,1133,2417.7,189.4,57.3,17.8
0.145234,404.1,56.1,1119.2,30.4,2380.3,275.3,416.6,1121.4,2419.4,188.6,56.8,17.2
0.147234,408.4,64.5,1112.2,26.5,2373.3,328.3,417.6,1110.6,2421.2,187.8,56.3,16.8
0.149234,413.6,72.7,1105.8,23.9,2376.4,337.7,418.8,1100.5,2423.1,186.9,55.8,16.6
0.151234,420.3,81.2,1100.1,21.8,2387.6,287.8,420,1091,2425.2,186.1,55.3,16.5
0.153234,427.1,89.4,1095.5,20.4,2397.5,238.7,421.3,1082.3,2427.4,185.3,54.8,16.5
0.155234,434.3,97.3,1091.4,19.1,2406.0,212.3,422.7,1074.3,2429.7,184.5,54.4,16.5
0.157234,440.7,103.9,1087.8,18.1,2414.5,209.9,424.3,1066.9,2432.1,183.6,54,16.3
0.159234,444.7,108.1,1084.4,17.4,2425.8,224.2,425.9,1060.1,2434.6,182.8,53.6,16
0.161234,445.0,108.5,1080.7,17.1,2444.4,244.2,427.5,1053.9,2437.2,182,53.4,15.7
0.163234,441.6,103.6,1077.0,17.4,2464.9,248.1,429.3,1048.3,2439.8,181.2,53.3,15.3
0.165234,435.7,93.9,1072.8,18.0,2475.4,231.6,431.2,1043.3,2442.5,180.4,53.3,14.9
0.167234,429.5,83.0,1068.3,18.5,2469.6,211.0,433.1,1038.7,2445.3,179.7,53.3,14.6
0.169234,424.4,74.8,1063.9,18.9,2455.1,198.7,435.2,1034.6,2448.1,178.9,53.4,14.4
0.171234,420.5,70.3,1059.4,20.1,2436.5,198.7,437.3,1031,2450.9,178.2,53.5,14.3
0.173234,418.5,70.4,1055.8,22.5,2419.0,207.9,439.5,1027.7,2453.7,177.4,53.4,14.2
0.175234,419.6,74.3,1052.5,26.3,2407.0,215.5,441.7,1024.8,2456.6,176.7,53.3,14
0.177234,424.8,80.4,1048.4,31.0,2404.7,213.4,444.1,1022.1,2459.4,176,53.1,13.7
0.179234,434.3,87.4,1042.6,36.0,2408.5,202.1,446.5,1019.8,2462.1,175.3,52.9,12.9
0.181234,449.1,95.1,1035.5,41.5,2415.7,183.5,448.9,1017.7,2464.8,174.6,52.6,11.9
0.183234,465.7,99.5,1030.4,45.6,2427.3,163.9,451.4,1015.7,2467.5,174,52.4,10.8
0.185234,480.9,96.6,1028.5,46.8,2444.3,144.6,454,1013.9,2470,173.3,52.2,9.9
0.187234,489.6,87.4,1028.2,45.2,2460.0,128.8,456.6,1012.3,2472.5,172.7,52.2,9.6
0.189234,492.1,78.4,1026.2,43.8,2469.2,121.3,459.2,1010.7,2474.8,172.1,52.2,10
0.191234,491.7,72.3,1021.6,45.4,2472.8,124.3,461.9,1009.2,2477.1,171.5,52.4,11
0.193234,491.0,69.1,1015.9,50.3,2473.5,135.8,464.6,1007.8,2479.2,170.9,52.6,12.1
0.195234,491.3,66.2,1008.7,56.7,2476.3,149.8,467.3,1006.3,2481.2,170.4,52.7,13.3
0.197234,493.2,63.0,1001.0,60.7,2484.4,158.9,470,1004.9,2483,169.8,52.9,14.2
0.199234,495.8,59.8,994.4,59.9,2493.5,159.6,472.7,1003.4,2484.7,169.3,53,14.8
0.201234,497.5,56.5,989.8,55.9,2497.2,152.2,475.4,1001.9,2486.2,168.7,53.1,15.2
0.203234,497.8,53.9,987.5,52.7,2494.2,142.2,478.1,1000.3,2487.6,168.2,53.3,15.6
0.205234,496.8,51.8,985.6,51.7,2490.2,134.3,480.8,998.7,2488.8,167.8,53.4,15.9
0.207234,494.7,50.0,982.5,52.6,2489.0,132.0,483.4,997.1,2489.8,167.3,53.6,16.2
0.209234,492.3,48.5,978.9,53.9,2490.3,134.9,486,995.4,2490.7,166.8,53.7,16.6
0.211234,490.0,47.2,975.7,54.6,2493.1,140.7,488.6,993.6,2491.4,166.4,53.9,16.9
0.213234,487.9,46.6,973.5,53.9,2496.7,144.3,491.1,991.9,2491.9,165.9,54,17.2
0.215234,485.7,46.1,971.1,52.1,2501.0,143.0,493.6,990.1,2492.2,165.5,54.2,17.3
0.217234,483.7,45.0,968.5,49.9,2505.5,137.1,496,988.4,2492.4,165.1,54.3,17.3
0.219234,482.7,43.3,966.9,46.9,2510.4,130.4,498.4,986.6,2492.5,164.7,54.4,16.9
0.221234,483.1,41.3,967.1,43.3,2516.0,125.9,500.7,985,2492.4,164.3,54.5,16.2
0.223234,484.7,39.5,968.0,39.7,2520.7,123.0,502.9,983.4,2492.1,164,54.6,15.5
0.225234,486.1,37.6,967.9,35.8,2523.6,117.0,505,981.9,2491.8,163.6,54.6,14.9
0.227234,486.4,35.6,966.4,32.1,2524.1,107.0,507,980.5,2491.3,163.3,54.6,14.7
0.229234,486.1,34.7,964.6,29.5,2523.1,98.0,508.9,979.3,2490.7,162.9,54.5,15
0.231234,485.7,35.3,962.9,27.8,2522.1,93.7,510.8,978.3,2490,162.6,54.4,15.7
0.233234,485.4,36.9,962.0,27.0,2521.6,96.1,512.5,977.5,2489.2,162.4,54.3,16.6
0.235234,485.0,39.5,961.7,26.7,2521.1,104.5,514.1,977,2488.4,162.1,54.2,17.4
0.237234,485.6,43.2,961.6,27.2,2519.3,114.8,515.7,976.8,2487.5,161.9,54,17.8
0.239234,487.9,48.2,961.2,28.3,2515.1,125.0,517.1,977,2486.5,161.6,53.8,17.8
0.241234,492.0,55.3,960.3,30.2,2506.5,136.9,518.4,977.5,2485.5,161.4,53.6,17.5
0.243234,496.4,62.9,959.9,32.5,2495.7,145.3,519.6,978.4,2484.5,161.3,53.4,17.1
0.245234,499.8,69.5,961.0,34.9,2485.5,145.5,520.7,979.7,2483.5,161.1,53.2,16.7
0.247234,501.2,73.7,963.9,37.5,2478.7,140.2,521.6,981.4,2482.5,161,53,16.5
0.249234,502.0,76.2,967.6,40.6,2476.2,136.9,522.5,983.7,2481.5,160.9,52.9,16.6
0.251234,504.1,78.5,972.6,44.4,2477.9,138.6,523.2,986.4,2480.5,160.9,52.7,16.7
0.253234,507.8,82.3,978.6,49.0,2482.4,145.1,523.8,989.6,2479.6,160.8,52.4,16.9
0.255234,513.7,88.9,987.2,54.5,2487.5,152.6,524.4,993.4,2478.7,160.8,52.1,17.1
0.257234,521.5,96.6,997.7,58.5,2489.7,154.7,524.8,997.6,2477.9,160.8,51.7,17.1
0.259234,531.3,104.6,1010.3,60.6,2488.2,153.2,525.1,1002.5,2477.1,160.9,51.4,17.1
0.261234,541.0,111.7,1022.5,60.7,2485.3,152.0,525.3,1007.8,2476.5,161,51,17
0.263234,549.0,116.3,1032.0,59.3,2483.4,153.7,525.4,1013.7,2475.9,161.1,50.7,16.9
0.265234,556.3,119.5,1040.7,57.9,2482.0,161.4,525.4,1020.1,2475.4,161.3,50.4,16.7
0.267234,563.4,122.5,1049.9,57.1,2479.8,173.4,525.3,1027,2475,161.4,50.2,16.4
0.269234,568.7,123.5,1059.2,55.4,2475.1,180.6,525.2,1034.4,2474.7,161.6,50.2,15.9
0.271234,570.0,120.3,1069.2,51.8,2465.8,179.2,524.9,1042.2,2474.5,161.8,50.2,15.2
0.273234,567.4,114.3,1078.7,48.1,2454.9,174.4,524.6,1050.5,2474.4,162.1,50.3,14.5
0.275234,562.6,106.4,1088.3,44.6,2445.7,172.7,524.2,1059.2,2474.4,162.3,50.5,14
0.277234,556.5,97.5,1097.8,42.0,2439.5,179.7,523.8,1068.2,2474.5,162.6,50.8,13.7
0.279234,549.8,88.7,1107.5,40.4,2434.2,194.7,523.3,1077.6,2474.7,162.9,51.1,13.8
0.281234,542.5,79.4,1118.3,38.9,2427.5,208.4,522.7,1087.3,2475,163.2,51.4,14.3
0.283234,535.4,70.6,1128.3,37.0,2422.0,203.9,522.1,1097.2,2475.3,163.5,51.7,14.8
0.285234,528.6,62.2,1138.4,34.7,2420.1,181.0,521.5,1107.2,2475.8,163.8,52,15.4
0.287234,523.5,55.1,1147.9,32.3,2422.5,154.7,520.8,1117.4,2476.3,164.1,52.3,15.7
0.289234,520.1,49.3,1156.0,30.0,2426.8,135.3,520.1,1127.7,2476.9,164.5,52.5,15.8
0.291234,517.2,44.4,1162.8,28.5,2431.7,123.5,519.4,1138,2477.6,164.8,52.7,15.7
0.293234,515.0,40.4,1168.2,28.1,2435.9,121.4,518.7,1148.3,2478.3,165.1,52.8,15.6
0.295234,513.5,36.6,1173.7,28.9,2439.0,129.9,518,1158.4,2479,165.4,52.9,15.5
0.297234,512.4,33.4,1178.7,31.8,2439.7,152.3,517.3,1168.4,2479.8,165.6,53,15.5
0.299234,511.8,31.4,1182.4,37.7,2437.3,186.7,516.5,1178.1,2480.6,165.9,53.1,15.7
0.301234,512.2,30.7,1184.8,47.8,2435.1,224.1,515.8,1187.5,2481.4,166.2,53.1,16
0.303234,513.0,30.5,1186.0,59.2,2439.8,240.9,515.2,1196.6,2482.2,166.4,53.1,16.3
0.305234,513.4,29.9,1187.3,69.0,2453.9,233.5,514.5,1205.3,2482.9,166.6,53.1,16.5
0.307234,512.7,28.4,1190.7,74.2,2473.9,210.0,513.9,1213.5,2483.7,166.8,53.1,16.5
0.309234,511.0,26.3,1196.5,76.7,2494.6,184.5,513.3,1221.2,2484.5,167,53,16.2
0.311234,508.3,24.5,1204.9,80.6,2514.7,164.7,512.7,1228.4,2485.1,167.2,52.9,15.8
0.313234,505.5,23.4,1214.9,86.9,2531.4,156.2,512.2,1234.9,2485.8,167.3,52.6,15.2
0.315234,502.6,23.0,1227.0,94.5,2545.4,155.7,511.8,1240.8,2486.4,167.4,52.2,14.5
0.317234,499.7,22.8,1239.1,99.5,2554.0,159.9,511.4,1245.9,2486.9,167.5,51.6,13.7
0.319234,497.0,22.5,1250.9,100.2,2556.9,166.8,511,1250.4,2487.4,167.6,50.8,16.1
0.321234,495.6,21.9,1260.1,98.2,2551.7,177.0,510.8,1254,2487.8,167.7,49.7,21.7
0.323234,495.8,21.8,1262.5,101.0,2538.0,193.3,510.5,1256.9,2488.1,167.8,48.4,25.5
0.325234,497.6,23.3,1251.1,117.0,2518.8,215.7,510.4,1259,2488.3,167.8,46.8,22.8
0.327234,499.7,26.0,1221.9,141.7,2510.4,230.7,510.3,1260.2,2488.4,167.8,44.9,8.7
0.329234,500.8,29.8,1189.0,154.8,2521.2,237.1,510.3,1260.6,2488.5,167.9,42.9,-33
