time,f1,b1,f2,b2,f3,b3,f1p,f2p,f3p,f0,intensity,harmonicity
0.025168,333.9,130.2,1277.4,635.1,2276.2,992.8,365.8,1249.1,2389.7,203,50.7,21.2
0.027168,345.1,123.8,1290.2,551.1,2368.6,961.0,365.9,1248.6,2393.9,203,50.7,21.8
0.029168,355.2,115.2,1286.1,485.1,2422.0,858.4,366,1247.6,2400.8,203,50.7,23
0.031168,363.5,105.2,1275.3,442.3,2433.5,743.7,366.1,1246.3,2410.3,203,50.7,24.5
0.033168,369.2,96.0,1262.5,419.4,2417.7,650.2,366.2,1244.6,2422.4,203,50.7,26
0.035168,373.1,88.8,1250.6,407.1,2398.9,592.7,366.3,1242.5,2436.9,202.9,50.8,27.2
0.037168,375.8,83.7,1240.2,401.2,2393.0,576.9,366.5,1240,2453.6,202.9,50.8,28.1
0.039168,377.2,82.0,1232.9,402.3,2409.8,605.6,366.7,1237.2,2472.5,202.9,50.8,28.7
0.041168,377.8,82.6,1226.2,406.7,2448.8,659.6,366.9,1234.1,2493.1,202.9,50.9,29
0.043168,377.5,84.5,1218.9,414.1,2501.5,709.4,367.1,1230.6,2515.5,202.8,50.9,29.4
0.045168,376.4,87.0,1211.0,424.9,2559.3,742.1,367.3,1226.8,2539.2,202.8,50.9,29.7
0.047168,374.8,89.3,1201.0,431.2,2623.3,755.1,367.4,1222.8,2564.1,202.8,50.9,30.3
0.049168,373.9,89.7,1189.3,416.7,2676.8,738.7,367.6,1218.4,2589.9,202.7,50.8,31.1
0.051168,373.8,88.0,1179.1,380.9,2728.1,681.8,367.7,1213.9,2616.4,202.7,50.8,31.9
0.053168,374.1,85.4,1174.5,342.5,2771.1,575.7,367.9,1209.1,2643.2,202.7,50.8,32.6
0.055168,373.5,84.2,1174.7,323.3,2784.8,479.8,368,1204.1,2670.1,202.6,50.7,33.2
0.057168,371.6,86.0,1177.8,333.9,2776.7,426.1,368,1199,2696.9,202.6,50.7,33.3
0.059168,369.6,89.6,1181.7,366.6,2760.3,413.7,368.1,1193.8,2723.3,202.6,50.7,32.9
0.061168,368.6,92.8,1184.0,402.2,2748.8,426.0,368.1,1188.6,2749,202.5,50.7,32.4
0.063168,368.5,94.7,1183.0,421.3,2757.6,448.5,368.1,1183.5,2773.8,202.5,50.7,31.8
0.065168,368.0,96.1,1178.9,428.4,2785.7,457.4,368,1178.3,2797.6,202.5,50.7,31.5
0.067168,366.0,98.6,1171.1,445.6,2808.3,447.5,367.9,1173.4,2820.1,202.4,50.7,31.8
0.069168,362.7,102.4,1160.2,485.0,2807.0,446.0,367.8,1168.6,2841.1,202.4,50.7,32.7
0.071168,359.0,106.0,1146.9,536.3,2796.5,454.5,367.6,1164.1,2860.6,202.4,50.7,33.8
0.073168,357.2,107.1,1136.5,558.4,2792.1,461.8,367.5,1160,2878.3,202.3,50.7,35
0.075168,358.4,105.1,1134.6,531.2,2798.8,465.1,367.3,1156.2,2894.2,202.3,50.7,35.8
0.077168,361.6,100.4,1140.9,474.5,2821.7,467.0,367.1,1152.9,2908.2,202.3,50.7,36
0.079168,364.7,95.7,1150.7,428.5,2859.2,473.7,366.9,1150.2,2920.2,202.3,50.7,35.6
0.081168,366.5,94.0,1160.8,412.2,2909.7,482.5,366.7,1148.1,2930.3,202.2,50.7,34.9
0.083168,366.5,95.5,1168.1,428.3,2955.0,472.8,366.5,1146.7,2938.5,202.2,50.7,34.1
0.085168,365.7,98.0,1173.5,457.7,2966.2,465.4,366.4,1146,2944.7,202.2,50.7,33.7
0.087168,364.7,100.4,1180.8,484.9,2949.7,480.2,366.3,1146.1,2949.1,202.1,50.7,33.8
0.089168,365.0,100.4,1185.6,482.7,2941.7,517.9,366.2,1147,2951.8,202.1,50.7,34.5
0.091168,366.6,98.2,1185.5,455.0,2964.7,572.8,366.1,1148.8,2952.7,202.1,50.7,35.4
0.093168,367.9,95.8,1182.4,428.3,2973.8,1232.4,366.1,1151.5,2952.1,202,50.7,36.4
0.095168,368.5,94.2,1177.6,413.6,2930.9,1252.1,366.2,1155.2,2950.1,202,50.7,37.2
0.097168,368.5,93.4,1171.2,409.3,2936.6,1199.1,366.3,1159.8,2946.8,201.9,50.7,37.6
0.099168,368.2,93.4,1166.1,411.6,2993.9,1151.2,366.4,1165.4,2942.3,201.9,50.7,37.7
0.101168,368.1,93.3,1164.2,414.3,2966.3,485.2,366.7,1171.9,2937,201.8,50.7,37.7
0.103168,368.7,93.0,1168.1,418.2,2957.3,454.2,367,1179.4,2930.9,201.8,50.7,37.5
0.105168,369.1,93.4,1176.8,434.9,2954.2,472.0,367.4,1187.8,2924.2,201.8,50.7,37.4
0.107168,368.8,94.6,1188.6,474.7,2939.1,569.3,367.8,1197,2917.1,201.7,50.7,37.3
0.109168,368.1,96.1,1201.8,530.2,2899.8,678.0,368.4,1207.1,2909.8,201.7,50.7,37.2
0.111168,367.3,97.8,1220.3,599.2,2886.3,648.6,368.9,1217.9,2902.4,201.6,50.8,37.1
0.113168,367.3,98.7,1243.9,656.8,2899.5,535.7,369.6,1229.4,2895,201.6,50.8,36.9
0.115168,368.7,97.7,1265.0,674.1,2906.0,448.2,370.3,1241.6,2888,201.5,50.8,36.8
0.117168,371.2,95.0,1279.6,662.0,2904.2,406.8,371.1,1254.2,2881.3,201.4,50.8,36.7
0.119168,373.2,92.2,1290.0,653.2,2897.1,410.3,371.9,1267.3,2875.1,201.4,50.8,36.5
0.121168,374.5,90.1,1298.0,661.3,2889.3,448.0,372.7,1280.7,2869.5,201.3,50.8,36.4
0.123168,375.4,88.3,1299.2,680.8,2885.2,511.3,373.6,1294.3,2864.6,201.3,50.8,36.3
0.125168,376.4,86.3,1294.7,697.8,2880.7,576.6,374.4,1308,2860.4,201.2,50.8,36.2
0.127168,377.6,83.8,1290.6,708.5,2866.5,612.3,375.3,1321.7,2857,201.2,50.8,36.3
0.129168,378.8,81.6,1291.1,717.9,2847.1,602.7,376.2,1335.3,2854.5,201.1,50.8,36.6
0.131168,379.6,79.9,1295.7,734.8,2829.4,570.9,377.1,1348.6,2852.7,201.1,50.8,37
0.133168,379.9,78.8,1303.8,758.6,2820.8,531.2,377.9,1361.5,2851.7,201,50.8,37.3
0.135168,380.1,77.9,1315.5,780.3,2823.5,486.1,378.7,1373.9,2851.4,201,50.8,37.5
0.137168,380.3,77.2,1334.8,799.6,2834.8,436.9,379.5,1385.7,2851.9,200.9,50.8,37.4
0.139168,380.2,77.1,1364.3,826.0,2847.9,403.2,380.3,1396.9,2852.9,200.9,50.8,36.9
0.141168,380.0,77.5,1404.6,869.2,2857.7,395.5,380.9,1407.2,2854.4,200.9,50.8,36.3
0.143168,380.2,77.0,1430.2,913.5,2857.9,426.7,381.6,1416.7,2856.3,200.9,50.7,35.6
0.145168,380.9,74.9,1424.6,933.0,2848.7,495.5,382.1,1425.1,2858.4,200.8,50.7,35.1
0.147168,381.8,72.5,1414.8,929.9,2842.1,599.4,382.6,1432.6,2860.7,200.8,50.7,34.8
0.149168,382.3,71.8,1423.9,942.1,2882.4,723.8,383,1438.9,2862.9,200.8,50.7,34.7
0.151168,382.2,73.0,1449.7,984.9,2911.8,1556.2,383.4,1444.1,2865,200.8,50.7,34.8
0.153168,381.8,74.8,1474.6,1026.6,2717.5,1847.5,383.7,1448.2,2866.6,200.8,50.7,34.9
0.155168,381.5,75.6,1486.4,1025.4,2649.2,1960.0,383.9,1451,2867.8,200.8,50.7,35
0.157168,381.4,75.7,1498.3,982.2,2743.2,2158.3,384,1452.7,2868.2,200.9,50.7,35.1
0.159168,381.1,75.7,1512.6,936.0,2972.2,459.8,384.2,1453.1,2867.8,200.9,50.7,35.3
0.161168,380.8,75.5,1520.7,913.9,2951.7,443.3,384.2,1452.3,2866.4,201,50.7,35.4
0.163168,380.7,75.3,1517.4,928.1,2942.9,424.3,384.2,1450.4,2863.9,201,50.8,35.6
0.165168,381.0,74.9,1504.1,962.2,2940.7,412.1,384.2,1447.4,2860.1,201.1,50.8,35.8
0.167168,381.5,74.3,1484.2,994.2,2940.8,409.6,384.1,1443.3,2854.9,201.1,50.8,35.9
0.169168,382.1,73.5,1466.8,1007.6,2941.5,428.0,384.1,1438.2,2848.1,201.2,50.8,36
0.171168,382.6,72.2,1448.0,1001.6,2939.8,489.0,384,1432.1,2839.8,201.3,50.8,36.2
0.173168,383.4,70.0,1420.5,962.4,2924.4,620.1,384,1425.2,2829.8,201.4,50.8,36.2
0.175168,384.5,67.0,1391.9,892.3,2841.7,787.6,383.9,1417.5,2818.1,201.6,50.8,36.3
0.177168,385.9,63.2,1365.7,811.9,2735.9,766.7,383.9,1409,2804.6,201.7,50.8,36.2
0.179168,387.2,59.7,1343.6,752.9,2693.2,706.4,383.9,1400,2789.3,201.8,50.9,36
0.181168,388.2,56.9,1323.3,719.8,2675.8,663.3,383.9,1390.4,2772.3,202,50.9,35.7
0.183168,388.8,55.5,1309.4,716.3,2667.6,646.9,384.1,1380.3,2753.6,202.2,50.9,35.5
0.185168,389.1,55.6,1308.2,733.4,2664.3,661.1,384.2,1370,2733.3,202.4,50.9,35.3
0.187168,389.1,56.7,1320.6,759.5,2669.7,705.6,384.4,1359.4,2711.3,202.6,50.9,35.2
0.189168,389.1,57.9,1336.9,779.3,2686.3,763.9,384.7,1348.6,2688,202.8,50.9,35.3
0.191168,389.1,59.0,1349.1,794.4,2714.7,839.9,385.1,1337.8,2663.2,203,50.9,35.5
0.193168,389.1,60.0,1354.4,814.9,2743.7,979.1,385.5,1326.9,2637.3,203.3,50.9,35.6
0.195168,388.9,60.9,1352.5,843.1,2686.4,1170.4,386,1316.2,2610.4,203.6,50.9,35.7
0.197168,388.7,61.7,1340.0,863.1,2568.7,1167.6,386.5,1305.6,2582.6,203.9,50.9,35.6
0.199168,388.6,61.8,1324.2,853.2,2498.3,1077.2,387.2,1295.3,2554.1,204.2,50.9,35.5
0.201168,389.0,61.4,1313.9,813.9,2473.2,1007.1,387.8,1285.2,2525.3,204.5,50.9,35.4
0.203168,389.6,61.0,1307.5,759.4,2474.9,973.7,388.6,1275.6,2496.1,204.8,50.8,35.1
0.205168,390.0,61.2,1298.2,710.7,2481.4,977.8,389.3,1266.3,2467,205.2,50.8,34.7
0.207168,390.0,62.6,1283.0,676.2,2479.8,1043.0,390.1,1257.4,2438.2,205.6,50.8,34
0.209168,389.4,65.0,1265.7,664.1,2457.5,1161.0,391,1249,2409.7,205.9,50.8,33
0.211168,388.2,68.1,1246.2,668.7,2412.5,1269.8,391.8,1241.2,2382,206.3,50.7,31.9
0.213168,386.5,71.2,1223.0,682.1,2361.3,1299.5,392.7,1233.8,2355.3,206.7,50.7,30.7
0.215168,384.5,74.0,1194.8,700.7,2305.1,1267.5,393.5,1227.1,2329.7,207.1,50.6,29.5
0.217168,382.4,76.3,1159.7,719.7,2248.6,1205.8,394.3,1220.8,2305.4,207.5,50.5,28.4
0.219168,381.3,78.0,1129.0,728.3,2217.8,1143.0,395.1,1215.2,2282.8,208,50.4,27.3
0.221168,381.5,79.7,1108.9,736.6,2213.8,1086.6,395.8,1210.2,2262,208.4,50.3,26.2
0.223168,383.2,81.9,1101.8,763.6,2223.0,1021.1,396.5,1205.7,2243.2,208.8,50.1,25.1
0.225168,386.1,85.0,1105.5,833.1,2225.9,949.2,397.1,1201.9,2226.5,209.2,49.9,24.2
0.227168,390.5,89.4,1122.1,1001.0,2215.0,904.4,397.6,1198.6,2212.1,209.6,49.7,23.4
0.229168,396.9,93.9,1165.6,1275.3,2194.3,889.6,398.1,1195.9,2200.2,210,49.4,22.6
0.231168,406.0,96.0,1261.2,1581.6,2175.5,862.5,398.4,1193.9,2190.7,210.4,49.1,22
0.233168,414.5,96.5,1346.6,1745.4,2179.9,815.4,398.7,1192.4,2184,210.8,48.8,21.4
0.235168,419.8,101.0,1344.8,1754.1,2217.4,769.8,398.9,1191.5,2179.9,211.1,48.4,21
0.237168,422.1,111.3,1274.7,1637.7,2287.3,727.5,398.9,1191.2,2178.5,211.5,48,21
