time,f1,b1,f2,b2,f3,b3,f1p,f2p,f3p,f0,intensity,harmonicity
0.025281,291.6,93.9,1824.3,1396.1,2286.6,240.4,329.3,1794.4,2355.8,205.3,41.4,0.8
0.027281,302.2,80.4,1773.0,1072.2,2303.8,218.0,329.9,1796.4,2357.2,205.5,42.6,31.8
0.029281,313.0,70.2,1758.6,889.1,2317.9,195.9,330.8,1799.6,2359.6,205.7,43.6,37.9
0.031281,323.2,63.0,1760.9,803.4,2332.0,176.1,332.1,1804.1,2362.9,206,44.5,33.9
0.033281,331.4,58.2,1766.3,770.8,2346.6,159.2,333.7,1809.7,2367.1,206.2,45.3,25.5
0.035281,337.2,55.7,1779.1,748.0,2360.4,151.5,335.6,1816.4,2372.1,206.4,46.1,18.4
0.037281,341.3,55.2,1818.1,690.2,2373.3,163.4,337.9,1824,2377.9,206.7,46.7,17
0.039281,345.4,56.3,1879.0,569.6,2391.0,195.9,340.5,1832.5,2384.3,206.9,47.3,17.2
0.041281,350.1,56.9,1914.8,435.4,2413.1,230.9,343.3,1841.7,2391.4,207.2,47.9,17.8
0.043281,354.9,55.2,1922.6,355.7,2429.4,265.0,346.4,1851.5,2398.9,207.4,48.3,18.6
0.045281,359.7,53.6,1922.0,302.9,2441.5,277.7,349.7,1861.8,2406.9,207.7,48.7,19.3
0.047281,364.4,54.5,1921.4,250.5,2452.3,256.3,353.1,1872.3,2415.1,207.9,49.1,19.9
0.049281,368.8,58.0,1922.1,200.6,2459.8,226.5,356.8,1882.9,2423.6,208.1,49.4,20.5
0.051281,372.8,62.2,1923.1,163.0,2463.3,209.0,360.5,1893.4,2432.2,208.3,49.6,21.1
0.053281,376.1,65.0,1924.1,140.6,2464.6,206.5,364.3,1903.7,2440.8,208.5,49.8,21.7
0.055281,378.9,65.8,1925.0,129.0,2466.6,211.5,368.2,1913.6,2449.2,208.7,49.9,22.4
0.057281,381.4,65.3,1925.0,123.4,2471.9,215.9,372.1,1922.9,2457.5,208.8,50,23.2
0.059281,383.8,63.5,1923.8,121.9,2479.4,219.8,376,1931.4,2465.4,209,50.1,24.3
0.061281,386.0,60.4,1921.5,123.4,2485.7,226.4,379.9,1939.1,2472.9,209.1,50.1,25.5
0.063281,388.2,57.2,1918.8,124.6,2490.1,234.2,383.7,1945.7,2479.9,209.2,50.1,26.5
0.065281,390.7,55.0,1916.7,123.0,2494.4,238.2,387.3,1951.1,2486.4,209.2,50.2,27.3
0.067281,393.6,53.8,1915.1,119.0,2499.5,235.3,390.9,1955.1,2492.2,209.3,50.2,27.5
0.069281,396.8,53.2,1913.5,113.9,2504.0,226.1,394.2,1957.8,2497.3,209.3,50.3,27.2
0.071281,399.8,52.1,1911.6,108.7,2506.5,213.9,397.4,1958.9,2501.7,209.3,50.4,26.5
0.073281,402.6,50.5,1909.4,103.5,2507.2,200.4,400.4,1958.4,2505.2,209.2,50.5,25.8
0.075281,405.0,48.7,1907.2,97.8,2507.1,184.7,403.1,1956.2,2508,209.2,50.6,25.2
0.077281,407.1,47.0,1905.1,91.8,2506.8,167.9,405.6,1952.3,2509.9,209.1,50.7,25
0.079281,408.8,45.5,1903.0,86.3,2506.7,153.8,407.9,1946.7,2510.9,208.9,50.8,25.1
0.081281,410.2,43.9,1900.6,81.5,2506.7,142.6,409.8,1939.3,2511.1,208.8,51,25.3
0.083281,411.1,42.2,1897.8,78.3,2506.4,133.4,411.5,1930.2,2510.5,208.6,51.1,25.5
0.085281,411.6,40.1,1894.1,77.9,2505.2,124.1,412.9,1919.4,2509.1,208.4,51.3,25.6
0.087281,411.4,37.7,1889.6,81.8,2502.5,114.7,414,1906.8,2507,208.2,51.5,25.6
0.089281,411.0,35.3,1884.6,89.2,2499.3,104.7,414.8,1892.7,2504.1,207.9,51.7,25.4
0.091281,410.6,33.2,1879.2,99.6,2496.8,95.5,415.3,1877,2500.7,207.6,51.9,25.2
0.093281,410.1,31.0,1873.2,113.7,2495.2,88.8,415.6,1859.9,2496.7,207.4,52.2,25
0.095281,409.4,28.6,1866.1,132.3,2493.4,84.2,415.6,1841.5,2492.2,207,52.5,24.7
0.097281,408.5,26.0,1857.9,156.0,2490.2,81.2,415.3,1821.9,2487.3,206.7,52.8,24.3
0.099281,407.4,23.2,1847.9,186.2,2484.7,80.7,414.8,1801.1,2482.1,206.4,53.1,23.9
0.101281,406.2,20.4,1835.2,225.2,2476.8,83.3,414.1,1779.5,2476.7,206,53.4,23.3
0.103281,405.2,18.3,1820.3,275.5,2467.0,88.1,413.2,1757,2471.2,205.6,53.8,22.9
0.105281,404.6,17.0,1804.5,340.8,2456.2,94.0,412.1,1733.8,2465.6,205.2,54.2,22.6
0.107281,404.3,16.3,1784.4,419.9,2445.1,98.7,410.9,1710.2,2460.1,204.8,54.6,22.7
0.109281,404.0,15.6,1746.7,497.4,2433.5,101.9,409.6,1686.2,2454.8,204.3,54.9,23.1
0.111281,403.6,14.5,1685.4,538.4,2421.9,107.9,408.1,1661.9,2449.7,203.9,55.3,23.6
0.113281,403.1,13.2,1624.5,526.1,2410.7,121.8,406.6,1637.7,2445,203.4,55.7,24.3
0.115281,402.5,12.2,1581.0,489.9,2401.5,143.1,405.1,1613.5,2440.7,203,56,24.8
0.117281,402.1,11.6,1556.9,447.3,2400.6,163.9,403.5,1589.6,2436.9,202.5,56.4,25
0.119281,401.7,11.5,1549.3,402.4,2411.0,178.1,401.9,1566,2433.7,201.9,56.7,25.2
0.121281,401.5,11.8,1546.7,365.8,2424.1,193.9,400.4,1542.9,2431.1,201.4,57,25.2
0.123281,401.3,12.1,1538.5,345.8,2432.1,223.2,399,1520.4,2429.1,200.9,57.3,25.2
0.125281,401.1,12.5,1522.4,339.0,2435.4,266.9,397.6,1498.6,2427.9,200.3,57.5,25.1
0.127281,400.9,13.0,1501.3,336.8,2439.2,318.6,396.4,1477.5,2427.4,199.8,57.7,24.9
0.129281,400.6,13.8,1480.3,334.4,2447.7,377.0,395.3,1457.3,2427.6,199.2,57.9,24.7
0.131281,400.4,14.9,1462.4,333.6,2458.3,441.4,394.4,1438.1,2428.7,198.6,58,24.3
0.133281,400.2,16.2,1443.8,338.2,2465.6,505.0,393.7,1419.8,2430.4,198,58.1,24
0.135281,400.0,17.7,1421.9,345.8,2463.8,531.3,393.2,1402.5,2432.9,197.3,58.2,23.5
0.137281,399.8,19.5,1396.0,344.4,2456.4,496.1,392.9,1386.2,2436.1,196.7,58.3,23.1
0.139281,399.7,21.5,1366.5,326.5,2453.6,410.4,392.8,1370.9,2440,196,58.2,22.6
0.141281,399.3,23.3,1331.6,304.9,2457.5,319.2,393,1356.7,2444.6,195.3,58.2,22
0.143281,398.0,24.0,1289.8,290.7,2461.9,260.2,393.4,1343.5,2449.7,194.7,58.1,21.5
0.145281,396.0,23.6,1249.7,270.6,2461.9,238.3,394,1331.2,2455.3,194,57.9,20.9
0.147281,394.1,23.0,1224.1,235.4,2457.8,249.2,395,1319.9,2461.4,193.2,57.6,20.5
0.149281,392.7,23.0,1218.3,198.9,2453.0,290.3,396.2,1309.4,2467.8,192.5,57.3,20.2
0.151281,392.0,24.4,1225.2,168.6,2451.8,363.4,397.6,1299.8,2474.6,191.8,57,19.9
0.153281,392.1,28.0,1239.2,145.0,2461.6,470.1,399.3,1291,2481.6,191.1,56.6,19.6
0.155281,393.4,34.9,1256.5,123.3,2486.4,600.8,401.3,1282.8,2488.7,190.3,56.2,19.2
0.157281,396.6,45.3,1270.9,100.9,2512.9,743.0,403.4,1275.2,2495.9,189.6,55.7,18.7
0.159281,401.2,57.7,1277.6,83.3,2523.4,898.5,405.8,1268.3,2503.1,188.9,55.2,18.2
0.161281,406.0,69.4,1276.7,72.5,2524.9,956.9,408.5,1261.7,2510.1,188.1,54.7,17.5
0.163281,411.7,80.7,1271.3,64.3,2528.1,791.2,411.3,1255.6,2517,187.4,54.1,16.9
0.165281,419.1,93.1,1264.9,56.7,2528.3,577.9,414.3,1249.8,2523.6,186.7,53.6,16.3
0.167281,428.2,106.4,1259.8,50.0,2528.6,451.6,417.4,1244.2,2529.9,186,53.1,15.9
0.169281,437.2,117.4,1255.8,44.7,2532.8,419.5,420.7,1238.9,2535.8,185.2,52.7,15.6
0.171281,442.6,121.8,1252.2,41.1,2541.1,469.4,424.1,1233.6,2541.2,184.6,52.4,15.4
0.173281,443.8,119.2,1248.6,38.4,2552.9,596.8,427.6,1228.4,2546.1,183.9,52.2,15.2
0.175281,442.5,112.7,1244.9,35.9,2564.5,742.5,431.2,1223.3,2550.5,183.2,52.1,15.1
0.177281,441.2,106.8,1241.3,32.9,2574.5,763.4,434.9,1218.1,2554.3,182.6,52.1,15.2
0.179281,440.7,102.3,1237.6,29.8,2578.4,609.7,438.5,1212.9,2557.5,181.9,52.3,15.6
0.181281,440.0,98.0,1233.9,28.1,2574.3,446.9,442.2,1207.6,2560.1,181.3,52.4,16.1
0.183281,438.2,93.6,1229.8,28.4,2568.2,353.2,445.9,1202.2,2562.1,180.7,52.5,16.6
0.185281,436.2,90.5,1225.3,30.7,2561.5,322.1,449.5,1196.7,2563.4,180.1,52.7,16.8
0.187281,435.8,89.9,1219.7,34.8,2552.7,334.3,453.1,1191.1,2564.2,179.5,52.7,16.6
0.189281,437.6,91.5,1212.0,41.1,2540.9,377.1,456.6,1185.5,2564.3,179,52.7,16
0.191281,441.6,95.2,1201.1,49.7,2527.2,428.5,460,1179.8,2563.9,178.5,52.6,15.1
0.193281,447.8,100.7,1187.9,59.9,2521.0,460.9,463.3,1174.1,2563,177.9,52.4,14.2
0.195281,455.7,105.9,1174.6,71.2,2529.7,480.8,466.4,1168.5,2561.6,177.4,52.2,13.5
0.197281,464.2,108.8,1163.0,83.4,2546.5,516.5,469.5,1162.8,2559.8,176.9,52,13.2
0.199281,472.3,109.3,1153.3,95.5,2556.6,577.1,472.3,1157.3,2557.6,176.4,51.9,13.3
0.201281,478.8,107.6,1145.7,104.6,2547.8,633.4,475,1152,2555.2,176,51.8,13.5
0.203281,483.1,104.4,1140.1,109.1,2525.1,634.7,477.5,1146.8,2552.4,175.5,51.8,13.8
0.205281,484.9,100.0,1135.4,109.3,2510.3,568.4,479.8,1141.9,2549.5,175,51.9,14.3
0.207281,484.6,95.4,1130.4,107.6,2514.1,469.6,481.9,1137.3,2546.5,174.6,52,14.9
0.209281,483.6,91.5,1125.2,105.8,2526.5,371.9,483.8,1133.1,2543.4,174.1,52.1,15.7
0.211281,483.0,87.6,1120.1,103.5,2535.3,297.1,485.5,1129.4,2540.3,173.7,52.2,16.6
0.213281,483.3,81.8,1114.7,100.8,2539.5,256.3,487,1126,2537.3,173.3,52.2,17.5
0.215281,484.4,75.0,1110.0,98.4,2541.5,236.4,488.3,1123.3,2534.5,172.8,52.3,18.2
0.217281,486.5,68.9,1108.2,96.0,2542.3,221.0,489.4,1121,2531.8,172.4,52.4,18.4
0.219281,489.3,63.9,1110.4,94.3,2543.5,207.7,490.3,1119.4,2529.3,172,52.5,18.1
0.221281,491.9,58.8,1114.6,93.9,2545.0,201.4,491,1118.4,2527.2,171.6,52.7,17.5
0.223281,493.4,52.7,1117.8,93.9,2545.4,205.6,491.5,1118,2525.4,171.1,52.9,16.9
0.225281,494.9,46.2,1119.3,93.2,2543.3,216.6,491.8,1118.3,2523.9,170.7,53.2,16.5
0.227281,497.3,41.0,1120.3,91.4,2540.2,225.8,491.9,1119.3,2522.8,170.3,53.4,16.3
0.229281,499.6,37.3,1121.9,88.2,2539.9,230.4,491.9,1120.9,2522.1,169.9,53.7,16.3
0.231281,500.8,35.0,1124.6,83.7,2543.7,233.9,491.7,1123.1,2521.8,169.5,54,16.4
0.233281,500.8,33.5,1127.2,79.0,2548.9,240.1,491.4,1125.9,2521.9,169.1,54.3,16.5
0.235281,499.4,31.7,1128.5,74.3,2551.9,252.1,490.9,1129.4,2522.5,168.7,54.6,16.8
0.237281,497.1,29.5,1129.0,69.5,2551.3,265.9,490.4,1133.3,2523.4,168.3,54.8,17.1
0.239281,494.6,27.8,1130.6,64.6,2548.2,271.8,489.7,1137.7,2524.7,167.9,55,17.5
0.241281,492.5,26.8,1133.4,59.9,2544.8,266.9,489,1142.6,2526.3,167.5,55.1,18
0.243281,491.0,26.3,1137.6,55.3,2541.5,254.7,488.2,1147.8,2528.2,167.1,55.2,18.5
0.245281,489.9,26.1,1142.4,51.3,2538.7,242.0,487.4,1153.4,2530.4,166.7,55.3,18.9
0.247281,488.7,25.7,1146.4,48.5,2536.7,238.5,486.5,1159.1,2532.9,166.3,55.3,19.2
0.249281,487.4,24.7,1148.5,47.4,2534.4,249.0,485.5,1165,2535.5,166,55.3,19.4
0.251281,485.9,23.7,1149.1,48.9,2529.9,266.9,484.6,1171,2538.2,165.6,55.2,19.5
0.253281,484.4,23.3,1149.6,53.7,2524.1,280.7,483.7,1176.9,2541,165.3,55.2,19.5
0.255281,483.0,23.3,1151.1,61.9,2520.0,284.8,482.8,1182.8,2543.9,165,55.2,19.6
0.257281,481.5,23.6,1153.7,74.6,2520.9,279.4,481.9,1188.4,2546.7,164.7,55.1,19.6
0.259281,480.4,24.0,1159.7,90.4,2527.4,268.9,481.1,1193.8,2549.4,164.4,55,19.6
0.261281,479.9,24.1,1173.4,102.5,2537.2,259.1,480.3,1198.9,2552,164.1,54.9,19.5
0.263281,479.7,24.0,1193.7,103.5,2546.4,251.5,479.6,1203.5,2554.5,163.8,54.7,19.4
0.265281,479.4,24.3,1213.4,95.4,2552.1,245.1,479,1207.7,2556.7,163.6,54.4,19.2
0.267281,478.3,24.8,1229.5,85.3,2554.1,241.0,478.5,1211.3,2558.6,163.3,54.1,18.8
0.269281,476.2,25.7,1242.7,76.9,2553.8,238.7,478,1214.3,2560.2,163.1,53.7,18.3
0.271281,473.3,27.0,1253.1,70.3,2554.4,234.5,477.7,1216.8,2561.5,162.9,53.3,17.8
0.273281,470.5,28.5,1260.8,64.4,2558.6,224.9,477.4,1218.5,2562.5,162.7,52.9,17
0.275281,468.1,30.4,1266.2,59.4,2565.2,209.9,477.2,1219.6,2563.1,162.5,52.4,16.1
0.277281,465.7,32.6,1269.8,55.3,2571.1,192.6,477.2,1219.9,2563.3,162.3,51.9,14.8
