time,f1,b1,f2,b2,f3,b3,f1p,f2p,f3p,f0,intensity,harmonicity
0.025320,719.6,401.5,1142.8,76.8,2474.7,1734.6,706.6,1135.5,2365.8,226,45.5,10.7
0.027320,710.4,431.8,1149.1,76.2,2374.6,1579.4,707.9,1141.3,2357.3,226.5,45.9,11.4
0.029320,705.2,435.1,1156.2,79.4,2316.8,1447.4,709.8,1150.8,2343.9,226.9,46.2,12.1
0.031320,703.3,422.1,1164.5,86.8,2278.0,1334.9,712.5,1163.5,2326.1,227.4,46.4,12.7
0.033320,704.4,403.6,1174.3,99.7,2244.7,1242.1,715.9,1178.9,2305.2,227.9,46.5,13.2
0.035320,709.8,383.6,1187.8,118.6,2215.3,1185.9,719.7,1196.3,2282.3,228.5,46.6,13.4
0.037320,718.6,361.4,1206.9,139.2,2197.2,1181.1,723.9,1214.9,2258.9,229.1,46.5,13.4
0.039320,727.3,340.4,1228.6,154.5,2194.0,1215.3,728.5,1234.1,2236.3,229.7,46.4,13.2
0.041320,735.7,324.4,1250.7,165.5,2200.9,1271.8,733.2,1253.1,2215.9,230.3,46.3,12.9
0.043320,744.4,314.8,1272.4,172.7,2215.2,1344.5,738,1271.3,2198.8,231,46.2,12.6
0.045320,753.4,312.6,1293.9,172.0,2236.8,1441.1,742.8,1288,2185.9,231.7,46.1,12.4
0.047320,762.1,326.0,1311.9,164.3,2254.2,1556.5,747.5,1302.8,2178.1,232.4,46.2,12.1
0.049320,769.2,359.4,1323.8,157.0,2250.7,1634.2,752,1315.4,2175.5,233.1,46.3,11.8
0.051320,769.9,395.8,1329.2,150.6,2237.6,1576.0,756.4,1325.6,2178.3,233.8,46.5,11.6
0.053320,762.3,406.4,1329.7,140.4,2242.2,1379.3,760.7,1333.4,2186.1,234.6,46.9,11.5
0.055320,755.7,379.7,1328.0,129.5,2259.2,1182.8,764.9,1339,2198.2,235.3,47.3,11.7
0.057320,756.6,340.6,1325.8,124.2,2265.8,1078.5,769,1342.7,2213.7,236.1,47.6,12.3
0.059320,762.7,309.9,1325.4,126.2,2255.8,1075.4,773.2,1344.8,2231.3,236.8,48,13.1
0.061320,770.0,291.7,1329.3,133.1,2234.7,1150.7,777.6,1345.9,2249.7,237.6,48.2,13.8
0.063320,776.7,280.6,1338.7,142.4,2207.5,1273.0,782.1,1346.5,2267.4,238.3,48.4,14.3
0.065320,780.6,270.8,1351.3,150.1,2184.1,1360.1,787.1,1347.2,2283,239.1,48.5,14.2
0.067320,782.3,258.0,1363.0,154.5,2177.8,1334.5,792.5,1348.5,2295.1,239.8,48.5,13.7
0.069320,786.4,242.5,1371.3,155.7,2193.2,1223.8,798.6,1351,2302.5,240.5,48.4,13
0.071320,798.0,225.8,1376.5,155.0,2219.8,1096.3,805.2,1355,2304.2,241.2,48.4,12.1
0.073320,815.5,211.6,1379.2,153.8,2242.9,1002.3,812.6,1361,2299.7,241.9,48.4,11.5
0.075320,833.4,201.5,1382.1,152.9,2257.9,947.8,820.8,1369.1,2288.6,242.6,48.4,11.3
0.077320,847.8,195.4,1387.7,151.9,2266.9,915.8,829.6,1379.6,2271,243.3,48.4,11.4
0.079320,858.7,191.6,1398.1,149.0,2271.4,887.0,839.1,1392.3,2247.3,244,48.4,11.7
0.081320,866.7,189.5,1413.0,142.2,2268.4,859.3,849.2,1407.2,2218.4,244.6,48.4,12
0.083320,872.2,191.3,1430.1,131.1,2254.6,841.2,859.8,1424.1,2185.4,245.2,48.3,12.4
0.085320,873.6,200.2,1444.4,120.9,2232.3,843.7,870.6,1442.7,2149.6,245.8,48.3,12.8
0.087320,872.4,215.4,1455.2,116.5,2207.5,874.3,881.5,1462.7,2112.8,246.4,48.3,13.2
0.089320,873.1,232.0,1464.5,121.1,2185.0,939.5,892.2,1483.8,2076.6,247,48.3,13.7
0.091320,879.5,245.0,1474.3,135.9,2161.1,1029.8,902.4,1505.5,2042.9,247.6,48.3,14.2
0.093320,892.1,256.2,1487.2,163.8,2121.7,1132.7,912,1527.7,2013.2,248.2,48.3,14.6
0.095320,909.2,268.1,1504.8,205.8,2060.5,1228.2,920.6,1550.1,1989.4,248.7,48.3,15
0.097320,928.7,277.8,1531.0,259.2,1987.7,1315.3,928,1572.4,1972.8,249.2,48.3,15.4
0.099320,946.3,279.0,1568.3,310.6,1921.6,1406.4,933.9,1594.6,1964.7,249.8,48.3,15.8
0.101320,958.9,270.9,1619.0,343.7,1863.9,1530.8,938.2,1616.6,1965.8,250.3,48.3,16.1
0.103320,962.9,259.5,1670.6,345.4,1827.4,1682.6,940.6,1638.4,1976.8,250.8,48.3,16.3
0.105320,957.7,248.9,1711.7,332.4,1827.3,1800.2,941,1660,1997.8,251.3,48.3,16.5
0.107320,944.8,237.6,1741.9,321.6,1863.1,1826.1,939.4,1681.7,2028.8,251.8,48.3,16.6
0.109320,928.4,223.1,1762.7,313.9,1918.2,1768.9,935.7,1703.5,2069.2,252.2,48.3,16.7
0.111320,912.9,208.0,1774.4,305.3,1978.9,1684.5,929.9,1725.6,2118.2,252.7,48.2,16.7
0.113320,899.6,194.8,1780.6,291.7,2051.7,1625.1,922.3,1748.1,2174.9,253.2,48.2,16.5
0.115320,890.4,186.7,1785.6,271.4,2149.8,1651.5,912.8,1771.2,2237.9,253.6,48,16.1
0.117320,886.6,184.6,1793.2,243.7,2338.4,1857.2,901.8,1794.7,2305.7,254,47.9,15.3
0.119320,886.4,187.2,1801.9,217.0,2928.3,2626.3,889.5,1818.6,2376.8,254.5,47.6,14.4
0.121320,884.8,191.6,1808.7,203.4,2781.8,730.3,876.3,1842.8,2449.6,254.9,47.3,13.4
0.123320,877.2,196.7,1815.1,207.0,2702.0,627.3,862.4,1867.1,2522.4,255.3,47,12.6
0.125320,863.8,199.7,1825.2,227.4,2649.4,632.6,848.2,1891.1,2593.7,255.6,46.7,12.2
0.127320,848.6,196.5,1844.7,262.4,2614.9,697.3,834.2,1914.4,2661.8,256,46.4,12.1
0.129320,834.5,185.8,1879.9,306.7,2603.6,812.7,820.8,1936.6,2725.4,256.4,46.2,12.1
0.131320,821.7,170.0,1930.7,340.2,2642.1,980.7,808.2,1957.1,2783.1,256.7,45.9,12.2
0.133320,807.0,149.6,1984.0,345.9,2783.9,1101.8,796.8,1975.6,2834,257,45.7,12.2
0.135320,789.8,128.5,2015.6,347.9,2912.6,937.4,787.1,1991.5,2876.9,257.3,45.4,12
0.137320,773.3,113.9,2028.3,366.3,2926.7,728.3,779.2,2004.4,2911.1,257.6,45.1,11.5
0.139320,761.9,113.2,2037.5,398.4,2908.4,600.9,773.4,2013.9,2935.9,257.9,44.8,11
0.141320,756.2,130.0,2052.6,446.8,2893.4,553.8,769.9,2019.7,2951,258.1,44.5,10.4
0.143320,753.2,169.2,2077.5,518.1,2888.9,569.3,768.7,2021.6,2956.1,258.3,44.2,9.9
