time,f1,b1,f2,b2,f3,b3,f1p,f2p,f3p,f0,intensity,harmonicity
0.025472,371.1,27.7,2585.9,125.2,3207.6,547.0,357.7,2612.4,3222.2,194.4,42.6,13.4
0.027472,372.5,24.6,2613.3,131.9,3182.1,567.5,358.3,2611.6,3218.1,194.4,43.1,14.3
0.029472,373.9,23.2,2635.5,130.6,3167.7,583.5,359.4,2610.3,3211.3,194.5,43.6,15.6
0.031472,375.6,23.3,2651.0,122.9,3161.9,580.6,360.9,2608.5,3202,194.5,44.1,17.2
0.033472,377.8,24.2,2656.4,114.9,3154.2,543.8,362.9,2606,3190.1,194.5,44.6,18.7
0.035472,380.4,25.0,2649.5,112.3,3138.3,486.1,365.4,2602.9,3175.8,194.6,45,19.9
0.037472,382.8,25.2,2630.7,116.3,3120.7,440.7,368.5,2599.2,3159.4,194.6,45.4,20.5
0.039472,384.9,25.0,2601.9,124.1,3109.0,422.5,372.2,2594.6,3141,194.6,45.8,20.4
0.041472,386.8,25.2,2571.0,129.2,3109.0,429.5,376.6,2589.3,3120.7,194.7,46,19.8
0.043472,388.7,26.6,2545.6,128.6,3116.1,438.9,381.7,2583,3098.9,194.7,46.2,18.9
0.045472,390.7,29.9,2526.7,125.8,3121.3,429.4,387.6,2575.8,3075.6,194.7,46.4,17.9
0.047472,392.9,34.7,2511.9,124.5,3123.5,410.4,394.4,2567.4,3051.3,194.7,46.4,17.1
0.049472,394.7,39.9,2501.8,123.4,3118.5,405.4,402,2558,3026,194.8,46.4,16.5
0.051472,396.5,45.9,2499.4,119.6,3094.7,430.5,410.5,2547.3,3000.1,194.8,46.4,16
0.053472,398.4,52.6,2504.2,117.1,3047.5,490.3,419.9,2535.3,2973.7,194.8,46.3,15.5
0.055472,401.6,60.8,2509.4,120.2,2994.3,581.0,430.2,2522,2947.2,194.8,46.2,15.1
0.057472,407.8,70.0,2509.0,125.2,2957.4,700.3,441.4,2507.2,2920.5,194.7,46.2,14.7
0.059472,416.7,79.4,2498.9,127.7,2935.4,819.2,453.5,2490.9,2894.1,194.7,46.1,14.5
0.061472,428.5,90.4,2478.3,127.5,2907.0,909.1,466.4,2473,2868,194.6,46.1,14.4
0.063472,443.0,102.8,2452.8,126.1,2861.9,938.1,480.1,2453.5,2842.4,194.5,46.1,14.3
0.065472,461.0,114.6,2428.6,128.3,2804.2,888.1,494.5,2432.5,2817.4,194.4,46.1,14.1
0.067472,482.5,122.7,2408.6,138.6,2750.1,766.3,509.6,2409.7,2793.1,194.3,46.1,13.9
0.069472,508.3,126.8,2390.2,156.1,2709.9,616.9,525.2,2385.3,2769.6,194.2,46.1,13.4
0.071472,534.4,126.6,2375.8,174.5,2686.7,514.0,541.2,2359.3,2746.9,194,46.1,12.8
0.073472,557.7,123.1,2367.1,193.6,2669.8,467.5,557.6,2331.7,2725.1,193.8,46.1,12.2
0.075472,577.5,118.2,2359.1,214.8,2651.7,443.6,574.1,2302.5,2704.2,193.6,46.1,11.5
0.077472,594.4,114.1,2343.6,236.0,2631.4,415.1,590.6,2271.8,2684.2,193.3,46,10.7
0.079472,608.9,113.8,2315.4,253.6,2615.4,372.5,607.1,2239.7,2665,193,45.9,9.8
0.081472,624.8,120.2,2268.3,261.5,2611.5,302.8,623.3,2206.3,2646.6,192.7,45.7,8.7
0.083472,644.0,137.3,2211.4,257.2,2617.9,231.5,639.2,2171.6,2629,192.3,45.5,7.6
0.085472,667.9,168.0,2152.8,259.9,2624.1,188.1,654.5,2135.8,2612.1,192,45.3,6.7
0.087472,698.7,206.2,2089.1,268.4,2625.2,167.6,669.3,2099,2595.7,191.6,45.1,6.2
0.089472,732.4,233.9,2025.4,268.9,2618.8,161.0,683.4,2061.4,2579.9,191.1,44.9,6.2
0.091472,761.1,246.7,1966.2,270.3,2601.6,169.3,696.6,2023.2,2564.6,190.7,44.8,6.6
0.093472,776.0,252.0,1916.7,292.0,2572.3,194.6,709,1984.4,2549.6,190.2,44.8,7.1
0.095472,779.3,256.7,1872.2,341.8,2536.0,236.0,720.4,1945.3,2535,189.6,44.8,7.7
0.097472,779.3,265.0,1828.3,410.9,2498.1,289.2,730.8,1906,2520.6,189.1,44.8,7.9
0.099472,780.9,280.4,1786.8,474.6,2462.6,335.0,740.2,1866.8,2506.4,188.5,44.7,7.9
0.101472,780.9,299.8,1750.8,505.6,2438.3,356.5,748.6,1827.8,2492.4,188,44.7,7.7
0.103472,773.6,315.1,1732.0,480.6,2438.7,348.4,756,1789.2,2478.5,187.4,44.6,7.5
0.105472,759.4,328.1,1728.8,420.6,2456.2,316.3,762.4,1751.2,2464.8,186.8,44.5,7.1
0.107472,744.9,343.6,1730.5,359.7,2473.3,273.1,768,1713.9,2451.2,186.1,44.5,6.9
0.109472,736.6,359.0,1728.5,320.3,2481.4,247.1,772.7,1677.6,2437.9,185.5,44.4,6.6
0.111472,734.9,380.9,1718.4,308.9,2484.3,260.3,776.6,1642.4,2424.7,184.8,44.4,6.3
0.113472,736.6,427.6,1697.3,327.8,2485.9,330.9,779.9,1608.4,2411.8,184.2,44.4,6
0.115472,738.8,508.2,1662.7,368.9,2483.9,475.9,782.7,1575.9,2399.2,183.5,44.4,5.7
0.117472,744.1,568.7,1621.7,418.7,2466.6,703.8,785.1,1544.8,2387,182.9,44.5,5.4
0.119472,755.6,515.6,1588.4,464.7,2412.7,943.5,787.1,1515.4,2375.3,182.2,44.6,5.1
0.121472,763.5,406.4,1546.1,506.3,2313.0,1044.1,789,1487.7,2364.2,181.5,44.7,4.8
0.123472,760.9,332.6,1474.0,501.3,2249.3,923.4,790.8,1461.7,2353.7,180.9,44.8,4.6
0.125472,752.2,294.5,1402.4,419.4,2261.0,754.7,792.6,1437.6,2343.9,180.2,44.8,4.3
0.127472,742.9,274.8,1356.0,320.9,2301.4,617.8,794.6,1415.4,2335,179.6,44.8,4.2
0.129472,738.8,272.0,1332.7,255.8,2340.1,511.9,796.9,1395.1,2327,179,44.6,4.2
0.131472,744.1,299.5,1323.7,229.4,2356.9,416.3,799.4,1376.7,2320,178.3,44.4,4.4
0.133472,762.4,369.9,1321.1,233.4,2343.3,343.1,802.3,1360.1,2314.1,177.7,44,4.6
0.135472,802.2,469.4,1317.3,254.1,2322.9,294.9,805.6,1345.4,2309.3,177.1,43.7,4.7
0.137472,860.7,508.4,1313.6,284.4,2310.8,269.5,809.3,1332.4,2305.6,176.5,43.4,4.8
0.139472,890.0,446.2,1314.1,302.2,2303.3,269.3,813.3,1321.1,2303.1,175.9,43.2,4.6
0.141472,886.1,377.1,1309.7,295.3,2293.1,291.0,817.8,1311.4,2301.7,175.3,43,4.4
0.143472,872.0,336.7,1300.4,275.6,2282.8,302.7,822.6,1303.1,2301.5,174.8,42.8,4.1
0.145472,858.8,307.2,1293.5,256.7,2284.7,274.2,827.6,1296.3,2302.4,174.2,42.7,3.9
0.147472,851.6,267.7,1292.0,244.1,2292.1,226.1,832.8,1290.7,2304.4,173.7,42.5,3.7
0.149472,853.4,225.6,1295.7,235.6,2294.9,194.7,838.1,1286.2,2307.4,173.2,42.4,3.6
0.151472,859.2,195.0,1299.3,215.6,2297.4,183.6,843.3,1282.6,2311.3,172.6,42.4,3.5
0.153472,864.7,180.8,1297.3,179.5,2309.3,179.6,848.3,1279.9,2316,172.1,42.4,3.5
0.155472,868.8,175.4,1291.7,143.0,2330.3,166.8,852.9,1277.8,2321.5,171.6,42.6,3.5
0.157472,870.1,177.1,1286.7,120.4,2344.6,153.3,857.1,1276.3,2327.5,171.2,42.8,3.7
0.159472,868.7,190.2,1283.1,113.6,2345.1,156.4,860.6,1275.2,2333.9,170.7,43.1,4
0.161472,868.3,219.9,1279.8,119.8,2332.7,186.7,863.4,1274.3,2340.7,170.2,43.3,4.5
0.163472,873.1,265.3,1276.8,138.7,2311.5,255.9,865.2,1273.6,2347.7,169.7,43.5,5
0.165472,885.5,318.3,1275.6,170.1,2297.8,375.6,866.1,1272.9,2354.7,169.3,43.7,5.6
0.167472,904.9,363.7,1277.9,210.7,2326.0,540.7,865.7,1272,2361.6,168.8,43.7,6.2
0.169472,918.0,382.8,1282.1,238.0,2410.0,666.9,864.2,1271,2368.3,168.4,43.7,6.9
0.171472,900.9,377.9,1278.9,224.0,2271.3,11871.0,861.3,1269.8,2374.6,167.9,43.7,7.8
0.173472,854.1,341.5,1267.4,177.6,2501.9,576.4,857,1268.2,2380.6,167.4,43.8,8.7
0.175472,808.8,280.2,1256.1,131.9,2480.4,468.1,851.4,1266.2,2385.9,167,43.9,9.4
0.177472,780.1,230.3,1249.0,102.1,2457.5,396.6,844.4,1263.8,2390.7,166.5,44,10
0.179472,763.1,200.6,1245.4,85.6,2434.2,376.4,836,1261,2394.8,166.1,44.1,10.4
0.181472,756.9,188.9,1244.0,80.2,2405.9,406.6,826.3,1257.7,2398.2,165.6,44.2,10.7
0.183472,758.6,186.2,1242.3,81.8,2370.8,464.7,815.5,1254,2400.8,165.1,44.3,10.8
0.185472,763.7,186.8,1239.8,88.2,2340.7,516.6,803.6,1250,2402.7,164.6,44.4,10.7
0.187472,768.2,189.4,1237.8,98.6,2333.1,547.4,790.7,1245.5,2403.9,164.1,44.3,10.5
0.189472,770.7,195.7,1237.3,111.9,2349.0,568.0,777,1240.8,2404.4,163.6,44.2,9.9
0.191472,768.8,207.5,1236.8,127.9,2372.7,602.5,762.8,1235.8,2404.3,163.1,44,9.1
0.193472,759.6,220.0,1235.9,141.4,2387.1,643.6,748.2,1230.7,2403.6,162.6,43.7,8.1
0.195472,742.4,223.1,1238.0,144.9,2403.2,666.8,733.4,1225.5,2402.4,162.1,43.3,7.1
0.197472,718.2,215.5,1242.2,135.0,2439.7,664.7,718.7,1220.2,2400.8,161.6,42.9,6.3
0.199472,694.0,208.4,1240.7,119.6,2480.0,610.7,704.2,1215,2398.8,161.1,42.5,5.6
0.201472,675.6,211.6,1228.6,109.9,2483.2,499.5,690.3,1210,2396.7,160.6,42.1,4.9
0.203472,669.8,228.5,1209.7,113.6,2452.2,384.1,677.1,1205.3,2394.4,160.1,41.8,4.2
0.205472,675.5,245.9,1190.8,130.1,2419.2,310.4,664.9,1200.9,2392.1,159.6,41.5,3.7
0.207472,682.6,243.7,1177.8,151.4,2397.4,301.9,653.9,1196.9,2389.9,159.1,41.4,3.4
0.209472,682.6,231.1,1175.8,169.6,2395.2,360.9,644.2,1193.3,2387.9,158.7,41.3,3.3
0.211472,673.8,224.2,1182.6,185.5,2413.0,492.5,636.1,1190.4,2386.1,158.2,41.3,3.4
0.213472,658.0,223.9,1189.9,199.0,2426.7,674.4,629.6,1188,2384.6,157.8,41.3,3.6
0.215472,638.5,222.8,1191.5,213.8,2383.8,844.8,624.8,1186.3,2383.6,157.3,41.2,3.8
0.217472,618.9,219.3,1187.4,236.1,2289.3,893.5,622,1185.2,2382.9,156.9,41.2,4
0.219472,604.6,219.2,1182.7,263.9,2231.6,860.9,621,1184.9,2382.7,156.6,41.1,4
