time,f1,b1,f2,b2,f3,b3,f1p,f2p,f3p,f0,intensity,harmonicity
0.025528,453.4,237.9,2752.4,127.8,3303.4,943.3,473.8,2697.7,3277.6,286.6,47.1,11.5
0.027528,471.6,220.8,2739.9,145.0,3313.7,915.0,476.7,2702.6,3280.2,287.8,47,11.9
0.029528,485.4,205.1,2720.6,159.0,3300.7,856.3,481.4,2709.6,3283.4,289,46.9,11.8
0.031528,493.6,198.9,2702.2,156.7,3279.1,848.2,487.9,2717.1,3285.8,290.3,46.9,11.4
0.033528,498.4,204.2,2688.7,142.1,3250.5,926.8,496.2,2723.2,3285.4,291.5,47,11
0.035528,503.2,219.2,2679.2,127.4,3220.5,1052.0,506.2,2725.6,3280.2,292.9,47.1,10.6
0.037528,512.7,233.8,2671.7,117.1,3224.5,1171.1,517.7,2722.1,3268.2,294.2,47.3,10.3
0.039528,529.7,227.1,2665.3,112.3,3271.2,1267.8,530.6,2710.8,3247.7,295.6,47.6,10.2
0.041528,550.2,193.7,2660.6,114.0,3318.5,1316.6,544.6,2690.2,3217.5,296.9,48.1,10.3
0.043528,570.2,150.3,2659.1,128.0,3291.2,1308.3,559.6,2659.4,3177,298.3,48.7,10.3
0.045528,588.0,111.3,2663.4,172.1,3123.7,1188.4,575.4,2618.2,3126.5,299.6,49.4,10.4
0.047528,603.6,82.7,2676.8,292.9,2895.6,866.6,591.5,2567.4,3067.1,301,50.3,10.5
0.049528,618.0,66.4,2558.7,617.0,2844.6,346.1,607.9,2508.4,3001,302.3,51.2,10.5
0.051528,630.6,62.2,2421.7,630.6,2862.3,233.9,624.3,2443.3,2930.8,303.5,52.2,10.6
0.053528,642.5,65.8,2331.7,634.1,2857.8,199.1,640.5,2375.1,2859.9,304.7,53.1,10.6
0.055528,654.4,74.0,2269.9,643.6,2843.1,199.0,656.2,2306.6,2792.1,305.9,54,10.6
0.057528,666.8,84.3,2229.9,664.9,2818.1,218.6,671.5,2241.2,2731.3,307,54.7,10.7
0.059528,680.2,96.2,2205.0,703.3,2780.9,247.1,686.2,2182,2681.2,308,55.3,10.9
0.061528,693.2,107.8,2185.1,749.1,2740.3,265.2,700.5,2131.8,2645.3,308.9,55.7,11
0.063528,705.0,118.0,2153.0,786.1,2708.3,262.0,714.5,2092.6,2626.2,309.8,56,11.2
0.065528,714.9,126.5,2100.7,806.0,2691.3,245.0,728.3,2066,2625.7,310.5,56,11.4
0.067528,724.0,135.3,2031.6,822.0,2685.1,229.1,742.2,2052.4,2644.7,311.2,55.9,11.8
0.069528,735.1,148.1,1956.2,857.7,2683.3,229.4,756.6,2051.5,2682.8,311.9,55.6,12.3
0.071528,751.2,165.3,1907.6,932.1,2679.5,261.3,771.7,2062,2738.7,312.4,55.2,13
0.073528,774.6,182.0,1927.0,1050.6,2664.6,342.6,787.9,2082,2810.1,312.8,54.7,13.8
0.075528,804.0,189.7,2069.3,1174.9,2619.7,512.6,805.2,2108.7,2893.7,313.2,54.2,14.4
0.077528,838.5,184.7,2358.7,644.9,2583.4,1419.5,824,2139.3,2985.6,313.5,53.7,14.7
0.079528,873.6,168.2,2288.9,395.2,3116.4,1754.3,844.2,2170.5,3081.7,313.7,53.2,14.7
0.081528,906.2,143.4,2266.5,294.8,3427.7,1317.5,865.8,2199.5,3177.4,313.8,52.9,14.3
0.083528,932.4,117.0,2253.8,247.1,3497.1,961.5,888.6,2223.5,3268.8,313.8,52.6,13.9
0.085528,951.2,95.3,2243.8,221.6,3514.1,743.4,912.3,2240.6,3352,313.8,52.5,13.4
0.087528,963.5,81.7,2237.4,206.0,3524.9,611.6,936.2,2249.4,3424,313.8,52.4,13.2
0.089528,971.5,75.5,2236.2,196.7,3537.8,544.2,960,2249.5,3482.5,313.7,52.4,13.2
0.091528,976.2,75.2,2234.8,197.5,3550.2,528.5,982.8,2241.3,3526.1,313.5,52.3,13.4
0.093528,979.3,79.3,2222.9,214.6,3557.6,544.8,1004,2226.1,3554.6,313.3,52.3,13.6
0.095528,981.5,87.6,2193.2,252.2,3548.3,578.5,1022.8,2205.7,3568.5,313.1,52.1,13.6
0.097528,983.4,99.9,2144.5,308.6,3507.8,617.6,1038.5,2182.5,3569,312.8,51.8,13.4
0.099528,986.7,116.0,2092.8,368.2,3441.7,628.3,1050.6,2159.4,3558.2,312.6,51.4,12.8
0.101528,994.8,140.6,2055.5,432.3,3383.2,590.0,1058.6,2138.9,3538.6,312.3,50.9,11.9
0.103528,1012.1,181.2,2043.8,526.8,3360.4,550.3,1062.2,2123.6,3512.6,312,50.3,10.8
0.105528,1043.5,241.6,2062.1,688.9,3370.3,558.9,1061.3,2115.5,3483.2,311.7,49.6,9.8
0.107528,1089.8,305.1,2131.1,934.3,3414.6,625.8,1056.2,2116.1,3452.6,311.4,48.9,8.9
0.109528,1123.5,328.1,2258.4,1077.7,3505.4,666.2,1047,2126.1,3423.1,311.2,48.3,8.1
0.111528,1123.6,319.2,2321.5,944.0,3584.5,566.0,1034.6,2145.2,3396.4,310.9,47.7,7.4
0.113528,1102.4,308.7,2293.6,729.8,3603.0,456.5,1019.5,2172.4,3373.5,310.7,47.2,6.8
0.115528,1072.3,315.2,2253.4,561.6,3585.9,422.7,1002.8,2205.9,3355,310.5,46.8,6.2
0.117528,1025.7,343.6,2221.7,470.5,3159.6,7420.8,985.4,2243.3,3340.9,310.3,46.3,5.5
0.119528,950.0,366.4,2193.8,425.3,3415.6,618.6,968.4,2282,3331,310.1,45.9,4.9
0.121528,880.2,352.6,2189.3,407.9,3260.3,617.2,952.8,2318.8,3324.5,310,45.5,4.2
0.123528,855.7,339.1,2226.1,464.8,3204.7,543.0,939.5,2351,3320.6,309.9,45.1,3.6
0.125528,878.0,348.3,2325.0,576.4,3222.2,526.7,929.5,2376,3318.6,309.8,44.8,3
0.127528,923.9,344.9,2457.5,572.0,3289.7,539.8,923.2,2391.8,3317.7,309.8,44.5,2.7
0.129528,952.9,319.3,2504.6,483.4,3376.5,535.9,921,2397.2,3317.4,309.7,44.2,2.8
