time,f1,b1,f2,b2,f3,b3,f1p,f2p,f3p,f0,intensity,harmonicity
0.025748,453.1,26.6,2458.6,109.2,3562.0,440.5,463,2465.6,3582.3,229.5,49.6,20.4
0.027748,456.9,27.1,2445.1,99.2,3523.9,433.4,463.1,2463.3,3570.7,229.9,49.9,20.2
0.029748,461.2,28.3,2444.0,93.0,3505.2,422.4,463.5,2459.7,3552,230.2,50.1,19.7
0.031748,465.4,29.7,2452.7,90.8,3506.8,433.9,464,2454.8,3527.5,230.6,50.3,18.9
0.033748,468.6,31.0,2464.8,90.4,3525.8,469.1,465,2448.9,3498.6,230.9,50.5,18.2
0.035748,471.2,32.9,2473.0,90.0,3549.4,514.1,466.5,2442.2,3467.1,231.3,50.7,17.8
0.037748,473.7,35.7,2469.8,90.3,3545.5,550.7,468.7,2435.1,3434.7,231.7,50.8,17.7
0.039748,476.7,39.1,2453.1,93.0,3492.7,561.4,471.6,2427.9,3403.6,232.1,50.9,17.8
0.041748,480.2,42.6,2426.6,96.9,3410.7,535.3,475.6,2420.8,3375.3,232.5,50.9,18
0.043748,484.1,45.7,2399.6,100.4,3339.0,499.6,480.6,2414,3351.4,232.8,50.9,18.2
0.045748,488.5,49.1,2378.2,104.2,3285.3,485.5,486.8,2407.9,3333.3,233.2,50.8,18.4
0.047748,493.8,54.0,2368.7,107.6,3248.9,502.8,494.2,2402.4,3321.6,233.6,50.7,18.5
0.049748,500.9,62.0,2372.2,106.4,3231.8,539.9,502.9,2397.9,3316.8,233.9,50.6,18.5
0.051748,510.2,73.3,2382.2,98.6,3237.3,585.7,512.8,2394.2,3318.7,234.3,50.4,18.6
0.053748,520.7,84.6,2389.9,90.9,3260.5,645.8,523.9,2391.3,3326.7,234.6,50.2,18.6
0.055748,532.0,94.3,2393.7,88.3,3294.6,724.6,535.9,2389.1,3339.8,234.8,50,18.6
0.057748,544.5,102.6,2394.5,92.2,3338.1,799.9,548.7,2387.5,3356.4,235.1,49.8,18.4
0.059748,558.9,110.8,2393.6,103.7,3390.7,832.8,562,2386.2,3374.8,235.3,49.5,18.2
0.061748,576.0,119.7,2392.3,125.3,3445.5,804.3,575.7,2385,3393,235.5,49.2,17.9
0.063748,593.6,127.8,2392.0,152.5,3484.5,754.5,589.3,2383.6,3409.2,235.7,49,17.7
0.065748,609.9,134.6,2393.0,172.2,3504.3,740.7,602.6,2381.9,3421.3,235.8,48.7,17.7
0.067748,622.4,139.8,2394.5,177.8,3505.6,803.3,615.3,2379.5,3427.5,235.8,48.4,17.9
0.069748,630.5,143.2,2394.8,178.9,3486.5,955.9,627.1,2376.2,3426.5,235.9,48.2,18.4
0.071748,635.8,144.4,2390.6,181.6,3440.5,1164.4,637.6,2372,3417.2,235.9,48,18.9
0.073748,640.1,143.5,2378.5,183.9,3380.7,1300.7,646.7,2366.6,3398.9,235.8,47.8,19.3
0.075748,645.1,141.3,2359.0,183.3,3337.1,1326.6,654,2360.2,3371.6,235.7,47.6,19.5
0.077748,650.9,137.2,2338.0,179.9,3316.2,1329.1,659.6,2352.6,3335.8,235.6,47.5,19.4
0.079748,656.9,130.6,2321.7,177.5,3294.9,1396.4,663.1,2344.1,3292.2,235.4,47.4,19.1
0.081748,662.3,121.9,2310.9,180.1,3242.4,1543.9,664.6,2334.7,3242.3,235.1,47.3,18.6
0.083748,665.6,113.9,2302.5,187.8,3163.5,1668.7,664.2,2324.7,3187.9,234.9,47.3,18.1
0.085748,665.9,107.2,2293.2,199.3,3092.1,1706.6,661.8,2314.3,3130.9,234.5,47.4,17.6
0.087748,663.1,101.4,2286.4,212.3,3015.1,1652.5,657.7,2303.8,3073.5,234.2,47.5,17
0.089748,658.0,96.3,2288.0,218.3,2924.1,1510.8,652.1,2293.5,3018,233.8,47.7,16.2
0.091748,651.5,92.4,2292.8,201.9,2872.9,1338.7,645.1,2283.7,2966.4,233.4,47.9,15.5
0.093748,644.5,91.1,2291.3,167.9,2884.5,1215.9,637.1,2274.5,2920.6,232.9,48.1,14.9
0.095748,636.6,92.8,2285.2,136.4,2923.1,1155.6,628.3,2266.3,2882.4,232.4,48.2,14.5
0.097748,627.0,96.5,2278.0,118.5,2953.2,1140.4,619.2,2259.1,2852.8,231.9,48.4,14.5
0.099748,614.7,100.0,2271.4,115.3,2942.4,1127.1,609.9,2253.2,2832.8,231.4,48.5,14.7
0.101748,599.4,100.3,2265.6,126.7,2880.6,1058.0,601,2248.5,2822.7,230.9,48.6,15.1
0.103748,583.8,97.1,2259.2,148.9,2814.1,930.5,592.6,2245.1,2822.2,230.3,48.8,15.4
0.105748,570.6,93.4,2248.8,170.1,2786.2,802.1,585,2242.9,2830.8,229.7,48.9,15.6
0.107748,562.6,93.9,2236.1,173.9,2807.9,729.2,578.4,2241.7,2847.6,229.1,49,15.6
0.109748,560.8,99.7,2227.8,163.7,2863.9,722.6,573.1,2241.5,2871.1,228.5,49,15.5
0.111748,564.0,108.3,2226.2,151.2,2939.4,759.8,569.2,2242.1,2899.9,227.9,49.1,15.3
0.113748,569.1,115.1,2229.0,142.6,3009.2,795.9,566.7,2243.2,2932.2,227.4,49.1,15.1
0.115748,573.2,119.1,2231.8,141.6,3046.7,797.7,565.7,2244.7,2966.3,226.8,49,14.8
0.117748,574.9,122.2,2232.7,150.4,3044.3,766.2,566.2,2246.3,3000.7,226.2,48.9,14.5
0.119748,573.9,127.7,2234.1,167.5,3026.8,723.5,568,2247.9,3033.8,225.6,48.7,14.1
0.121748,570.8,136.4,2241.3,187.4,3017.3,692.8,571.1,2249.4,3064.4,225,48.6,13.6
0.123748,568.2,143.3,2255.0,195.7,3025.2,683.7,575.2,2250.6,3091.4,224.4,48.5,13.2
0.125748,570.9,140.6,2265.7,182.8,3048.2,678.7,580.1,2251.4,3114.4,223.9,48.5,12.9
0.127748,582.0,126.6,2265.6,158.6,3073.7,661.0,585.7,2251.8,3133,223.3,48.6,12.7
0.129748,598.5,108.1,2260.9,139.0,3091.6,632.5,591.6,2251.9,3147.3,222.8,48.8,12.6
0.131748,614.0,90.5,2258.3,130.1,3104.0,599.5,597.5,2251.7,3157.5,222.3,49,12.5
0.133748,623.8,77.2,2259.5,133.2,3120.6,562.7,603.4,2251.2,3164.1,221.8,49.2,12.4
0.135748,628.1,68.7,2263.6,148.0,3148.3,514.2,608.8,2250.5,3167.9,221.3,49.3,12.2
0.137748,627.9,66.0,2266.2,170.0,3180.8,455.7,613.5,2249.8,3169.6,220.9,49.3,12
0.139748,623.5,69.3,2256.2,174.9,3205.7,403.8,617.4,2249.1,3170,220.5,49.2,11.8
0.141748,614.8,79.3,2236.0,143.2,3220.1,381.5,620.4,2248.5,3169.7,220.1,49,11.6
0.143748,602.7,97.8,2227.5,109.4,3225.5,403.4,622.2,2248.1,3169.3,219.7,48.6,11.3
0.145748,586.6,125.1,2232.3,91.7,3229.9,453.9,622.8,2248,3169.2,219.3,48.2,11
