time,f1,b1,f2,b2,f3,b3,f1p,f2p,f3p,f0,intensity,harmonicity
0.025469,352.5,56.3,2282.9,143.8,2923.8,132.4,341.6,2316.3,2929,162.3,43.4,18.9
0.027469,353.9,56.2,2283.5,148.3,2932.0,145.4,344.6,2310.2,2933.8,162.2,43.7,19.8
0.029469,355.9,56.8,2286.1,156.3,2938.8,161.8,349.3,2300.4,2941.5,162.2,43.9,20.7
0.031469,358.4,58.4,2287.3,171.5,2949.1,179.2,355.6,2287.7,2951.3,162.2,44,21.4
0.033469,361.6,60.9,2283.2,199.8,2966.1,197.5,363.1,2272.9,2962.6,162.1,44.1,21.8
0.035469,365.8,63.8,2272.2,229.9,2984.8,207.8,371.4,2257.1,2974.5,162.1,44.2,21.7
0.037469,371.0,67.5,2260.0,239.9,2997.7,207.7,380.1,2241.4,2986.1,162,44.2,21.4
0.039469,377.9,71.7,2252.1,229.7,3004.0,204.3,388.9,2226.7,2996.7,161.9,44.2,20.8
0.041469,386.1,75.3,2247.4,217.6,3005.4,202.6,397.4,2214,3005.4,161.9,44.1,20.3
0.043469,395.9,78.6,2239.3,215.3,3005.4,203.4,405.3,2204,3011.7,161.8,44,19.8
0.045469,406.0,81.1,2224.8,225.8,3006.1,206.5,412.3,2197.3,3015.3,161.7,43.9,19.5
0.047469,415.3,81.8,2205.0,245.3,3008.1,213.1,418.5,2194.1,3016.2,161.6,43.8,19.2
0.049469,424.4,81.1,2178.4,272.4,3010.3,227.0,423.8,2194.4,3014.4,161.6,43.7,18.9
0.051469,432.0,79.6,2154.7,296.2,3011.1,246.7,428.4,2197.8,3010.3,161.5,43.6,18.6
0.053469,438.3,76.4,2150.6,306.3,3008.8,265.4,432.3,2203.7,3004.5,161.4,43.5,18.4
0.055469,444.1,72.4,2173.5,294.2,3001.8,273.5,435.9,2211.5,2997.7,161.2,43.4,18
0.057469,449.6,68.1,2206.7,266.2,2990.3,275.5,439.5,2220.2,2990.5,161.1,43.4,17.7
0.059469,453.8,62.7,2237.8,237.1,2974.9,287.1,443.4,2228.8,2983.7,161,43.3,17.4
0.061469,456.2,57.2,2256.0,221.1,2960.7,319.6,447.8,2236.4,2977.8,160.9,43.2,17
0.063469,458.5,52.6,2257.8,215.9,2952.6,370.7,453.1,2242.2,2973.4,160.7,43,16.7
0.065469,461.4,49.4,2245.8,209.4,2961.9,399.0,459.5,2245.3,2970.7,160.6,42.8,16.4
0.067469,465.1,47.6,2234.1,197.7,2982.4,367.1,467,2245.4,2969.7,160.4,42.6,16.2
0.069469,470.6,47.1,2232.2,187.9,2994.9,298.9,475.7,2242.1,2970,160.2,42.2,15.9
0.071469,478.0,48.1,2239.4,180.4,2997.0,246.7,485.5,2235.4,2971.3,160.1,41.9,15.6
0.073469,487.9,51.5,2246.5,170.8,2998.0,225.0,496.3,2225.7,2972.9,159.9,41.4,15.2
0.075469,499.8,57.7,2245.4,167.4,3001.9,237.3,507.7,2213.3,2973.9,159.7,40.9,14.6
0.077469,513.2,65.7,2233.5,180.1,3002.9,274.2,519.5,2198.9,2973.4,159.5,40.4,13.9
0.079469,527.0,74.3,2205.9,212.1,2985.4,322.0,531.2,2183.3,2970.4,159.3,39.9,13.2
0.081469,538.5,81.9,2164.1,244.6,2946.7,339.7,542.7,2167.3,2964.3,159,39.4,12.5
0.083469,549.7,89.1,2121.6,261.2,2911.6,322.9,553.4,2151.7,2954.2,158.8,39,11.9
0.085469,562.0,96.4,2099.4,278.8,2891.8,327.2,563.1,2137.3,2939.9,158.6,38.7,11.5
0.087469,575.2,103.8,2098.1,317.1,2872.8,387.8,571.5,2124.6,2921.2,158.4,38.4,11
0.089469,587.2,108.1,2111.2,364.8,2848.3,520.9,578.6,2114.1,2898.2,158.1,38.3,10.7
0.091469,594.1,105.3,2119.8,369.2,2833.1,661.2,584.2,2106.1,2871.6,157.9,38.4,10.4
0.093469,597.5,99.6,2106.2,325.2,2821.1,680.2,588.5,2100.4,2842,157.7,38.5,10.3
0.095469,597.7,97.4,2089.4,281.7,2812.1,603.9,591.4,2096.8,2810.7,157.5,38.7,10.4
0.097469,595.8,97.9,2084.2,256.5,2814.3,523.6,593.3,2095.1,2778.7,157.2,39,10.6
0.099469,593.3,96.5,2088.4,240.3,2824.6,460.2,594.3,2094.6,2747.5,157,39.4,10.9
0.101469,591.7,91.7,2093.4,230.2,2831.5,434.7,594.8,2094.7,2718.4,156.8,39.7,11.2
0.103469,592.8,85.7,2092.2,225.0,2809.9,472.0,595.1,2094.8,2692.7,156.6,39.9,11.3
0.105469,595.5,81.2,2087.9,228.2,2719.0,504.9,595.5,2094.3,2671.4,156.4,40.1,11.2
0.107469,596.1,78.9,2093.3,252.2,2646.6,459.9,596.2,2092.6,2655.2,156.3,40.1,11.1
0.109469,594.7,79.4,2115.0,315.0,2596.2,450.1,597.4,2089.4,2644.6,156.1,40,10.8
0.111469,594.8,83.8,2146.8,413.5,2549.1,484.9,599.2,2084.5,2639.8,155.9,39.7,10.5
0.113469,597.1,93.9,2155.7,513.7,2515.9,521.8,601.6,2077.9,2640.4,155.8,39.3,10.1
0.115469,600.4,108.8,2085.6,485.6,2556.9,502.6,604.7,2069.8,2645.8,155.6,38.7,9.8
0.117469,605.0,121.8,2010.3,380.1,2615.6,441.6,608.2,2060.5,2655,155.5,38.1,9.4
0.119469,611.2,127.5,1965.3,298.6,2662.4,400.5,611.9,2050.6,2666.8,155.4,37.3,9
0.121469,614.8,127.8,1953.7,274.0,2705.0,419.6,615.7,2040.7,2680,155.3,36.4,8.6
0.123469,613.3,127.9,1978.0,298.1,2754.1,511.1,619.3,2031.3,2693.1,155.2,35.4,8.1
0.125469,612.2,125.8,2026.9,323.9,2785.6,626.2,622.4,2023.3,2704.9,155.1,34.4,7.4
0.127469,618.4,117.6,2057.9,316.8,2763.8,666.6,624.8,2017.1,2714.2,155.1,33.4,6.5
0.129469,634.1,104.6,2062.0,301.2,2712.7,595.5,626.3,2013.2,2720.1,155,32.5,5.6
0.131469,652.3,95.3,2052.5,279.4,2684.6,467.2,626.8,2011.8,2722.2,154.9,31.7,4.9
