time,f1,b1,f2,b2,f3,b3,f1p,f2p,f3p,f0,intensity,harmonicity
0.025399,522.0,110.1,1716.6,173.8,2135.1,496.4,534.7,1714.6,2099.6,94.5,56.5,5.5
0.027399,529.0,97.8,1715.8,152.9,2133.7,463.4,536.5,1711.4,2100.1,94.5,57.2,13.6
0.029399,535.3,88.0,1712.1,139.1,2124.7,439.9,539.6,1706.3,2100.9,94.4,57.7,13.4
0.031399,543.7,84.9,1702.1,135.0,2105.2,442.6,543.7,1699.6,2101.5,94.4,58,9.3
0.033399,554.3,89.5,1686.0,137.7,2078.4,470.3,548.9,1691.6,2101.5,94.3,58.3,5.7
0.035399,564.3,89.2,1671.4,132.2,2061.4,470.0,555,1682.8,2100.6,94.3,58.6,6
0.037399,571.9,81.4,1662.6,119.6,2058.3,438.8,561.9,1673.6,2098.5,94.2,58.8,6.7
0.039399,577.9,72.6,1658.0,108.9,2060.7,415.6,569.3,1664.4,2094.9,94.2,59.1,7.2
0.041399,583.1,70.3,1656.4,110.5,2069.4,437.1,577.1,1655.6,2089.7,94.1,59.2,7.6
0.043399,588.0,81.5,1656.2,137.9,2081.9,504.8,585,1647.6,2083.1,94.1,59.4,8.1
0.045399,593.8,94.9,1651.1,178.9,2081.4,529.6,592.9,1640.4,2075.5,94.1,59.6,8.8
0.047399,599.1,93.5,1641.0,191.8,2073.0,495.6,600.5,1634.2,2067.3,94,59.7,9.7
0.049399,603.4,83.1,1632.1,181.3,2064.9,453.8,607.5,1629,2059.2,94,59.9,10.7
0.051399,607.1,73.8,1625.8,171.3,2057.0,428.1,613.8,1624.7,2052,94,59.9,11.7
0.053399,611.1,76.5,1622.5,182.7,2054.7,441.5,619.2,1621,2046.4,94,59.9,12.7
0.055399,618.2,92.7,1620.4,211.2,2069.6,471.6,623.5,1617.9,2043.1,93.9,59.9,13.6
0.057399,625.5,100.8,1613.2,219.5,2083.3,459.2,626.6,1614.9,2042.7,93.9,59.9,14.6
0.059399,628.7,93.3,1603.0,206.6,2079.3,431.1,628.6,1611.8,2045.6,93.9,59.9,15.6
0.061399,628.9,82.2,1594.7,192.1,2066.3,412.5,629.4,1608.6,2051.7,93.9,59.9,16.4
0.063399,627.3,80.8,1593.1,194.4,2056.3,425.2,629.1,1604.9,2060.9,93.9,59.9,16.7
0.065399,625.7,95.5,1600.5,219.0,2056.6,467.2,627.9,1600.7,2072.6,93.9,59.9,16.4
0.067399,626.5,109.1,1605.0,232.3,2063.2,477.5,625.8,1596.2,2086.2,93.9,59.9,15.1
0.069399,627.6,105.3,1599.5,218.5,2068.3,448.8,623.1,1591.3,2100.6,93.9,60,13.4
0.071399,626.8,93.4,1590.6,195.5,2072.0,414.4,619.9,1586.2,2114.7,93.9,60.1,11.7
0.073399,622.8,85.2,1583.5,177.6,2084.7,399.4,616.5,1581.3,2127.6,93.9,60.2,10.3
0.075399,614.5,85.8,1578.3,166.3,2123.3,405.5,613,1576.9,2138.1,93.8,60.3,9.6
0.077399,607.2,88.2,1572.8,153.3,2166.9,394.5,609.6,1573.1,2145.5,93.8,60.5,9.6
0.079399,605.6,82.3,1569.7,134.4,2182.9,364.9,606.2,1570.4,2149.3,93.8,60.7,9.9
0.081399,606.0,72.6,1569.1,117.7,2180.7,341.5,603.1,1568.9,2149.4,93.7,60.8,10.3
0.083399,604.5,65.5,1570.4,107.3,2170.4,331.2,600,1568.9,2146,93.7,61,10.7
0.085399,598.8,67.7,1574.2,107.2,2150.7,340.2,597.1,1570.4,2139.7,93.6,61.1,10.7
0.087399,590.3,79.5,1577.6,110.6,2126.4,348.6,594,1573.4,2131.7,93.6,61.2,10.7
0.089399,585.1,86.2,1578.1,105.2,2112.9,335.7,590.7,1577.8,2123.1,93.5,61.3,10.7
0.091399,583.9,80.8,1577.5,95.0,2106.8,319.1,587.1,1583.3,2115.5,93.4,61.4,10.5
0.093399,582.5,71.4,1578.1,87.8,2103.9,319.2,582.8,1589.8,2110.5,93.3,61.4,10.2
0.095399,577.2,67.6,1584.1,88.6,2108.9,362.9,577.8,1596.9,2109.5,93.2,61.3,9.6
0.097399,566.1,75.9,1601.4,97.0,2131.5,481.4,571.9,1604.3,2113.8,93.1,61.1,8.8
0.099399,554.7,86.9,1620.1,97.3,2157.2,598.7,565.1,1611.7,2124.3,92.9,61,7.7
0.101399,548.6,86.8,1626.5,88.8,2156.6,627.7,557.4,1618.6,2141.4,92.8,60.8,6.7
0.103399,546.7,79.4,1626.9,80.1,2142.1,620.7,548.9,1625,2165.1,92.6,60.6,5.8
0.105399,544.0,74.3,1628.2,74.7,2135.2,635.7,539.7,1630.5,2194.8,92.5,60.3,5.2
0.107399,536.7,82.5,1634.4,74.6,2179.5,690.1,530.1,1635.2,2229.4,92.3,60.1,4.9
0.109399,528.0,105.3,1644.1,73.9,2288.7,622.9,520.4,1638.9,2267.1,92.2,59.8,4.6
0.111399,523.9,114.8,1648.4,67.5,2332.3,514.6,511,1641.7,2306.2,92,59.6,4.5
0.113399,521.2,108.3,1648.8,57.2,2349.5,463.7,502.1,1643.7,2344.4,91.9,59.3,4.4
0.115399,517.4,99.9,1648.8,46.8,2373.5,427.8,494.3,1645,2379.5,91.7,59,4.4
0.117399,507.9,100.9,1649.0,41.3,2417.3,371.8,487.8,1645.8,2409.4,91.5,58.5,4.5
0.119399,483.2,116.2,1647.2,49.2,2452.0,308.2,482.9,1646.3,2432.2,91.4,58.1,4.6
0.121399,454.1,129.1,1640.5,69.7,2450.2,277.2,479.8,1646.5,2446.5,91.2,57.6,4.8
0.123399,437.5,129.6,1632.9,87.4,2441.6,256.9,478.8,1646.6,2451.3,91.1,57.1,4.8
