time,f1,b1,f2,b2,f3,b3,f1p,f2p,f3p,f0,intensity,harmonicity
0.025061,458.4,114.9,1783.3,119.2,2213.6,100.7,521.2,1709.9,2214.7,104,60.7,1.7
0.027061,475.7,109.0,1759.7,116.2,2206.3,105.6,522,1708.8,2214.1,104,61.6,3
0.029061,486.2,96.2,1747.2,108.8,2203.0,105.5,523.3,1707.1,2213.1,103.9,62.3,4
0.031061,492.8,83.8,1740.5,101.5,2203.9,101.7,525.1,1704.6,2211.6,103.9,62.8,4.7
0.033061,500.2,79.7,1731.5,99.9,2206.0,100.6,527.4,1701.5,2209.8,103.9,63.3,5.2
0.035061,513.4,88.7,1712.7,104.3,2203.5,106.1,530.2,1697.8,2207.6,103.9,63.6,5.6
0.037061,529.3,100.9,1694.1,102.1,2197.2,107.9,533.4,1693.5,2205.1,103.8,64,6
0.039061,539.4,102.2,1685.2,93.5,2194.2,102.1,537.1,1688.6,2202.2,103.8,64.3,6.4
0.041061,543.6,93.6,1679.6,86.3,2194.9,97.6,541.2,1683.1,2198.9,103.7,64.5,6.8
0.043061,546.7,84.9,1673.0,86.0,2196.4,100.0,545.7,1677.2,2195.4,103.6,64.6,7.1
0.045061,553.8,84.2,1661.3,97.1,2193.6,112.7,550.5,1670.8,2191.6,103.5,64.7,7.5
0.047061,563.6,86.5,1645.9,111.9,2185.2,125.1,555.6,1663.9,2187.5,103.4,64.8,7.7
0.049061,570.9,84.0,1634.6,115.3,2180.4,124.7,561,1656.8,2183.2,103.3,64.8,8
0.051061,576.2,80.4,1626.0,111.7,2181.4,119.4,566.6,1649.3,2178.7,103.2,64.9,8
0.053061,583.0,86.6,1615.2,110.3,2185.2,119.8,572.4,1641.6,2174,103.1,64.8,8
0.055061,596.0,112.1,1600.8,110.7,2188.6,129.7,578.4,1633.7,2169.2,103,64.8,8.1
0.057061,612.7,139.3,1590.7,104.3,2190.1,136.5,584.5,1625.6,2164.3,102.8,64.8,8.2
0.059061,623.8,143.8,1585.6,93.1,2192.0,132.8,590.7,1617.5,2159.3,102.7,64.9,8.7
0.061061,630.6,134.1,1581.2,83.2,2194.9,128.9,597,1609.4,2154.3,102.5,65,9.3
0.063061,639.3,126.5,1575.4,81.5,2194.7,139.6,603.2,1601.3,2149.2,102.4,65.1,10.1
0.065061,652.6,127.1,1567.5,89.1,2182.0,172.3,609.4,1593.2,2144.2,102.2,65.2,11
0.067061,661.9,125.4,1559.7,92.7,2160.0,199.0,615.5,1585.3,2139.2,102,65.4,11.7
0.069061,663.3,118.4,1554.4,87.8,2145.0,203.7,621.5,1577.6,2134.3,101.9,65.6,12.3
0.071061,660.5,110.9,1550.5,81.9,2134.3,202.5,627.3,1570.1,2129.6,101.7,65.8,12.8
0.073061,658.1,109.1,1547.0,84.0,2118.3,207.9,633,1562.9,2124.9,101.5,66,13.2
0.075061,661.2,112.4,1542.7,95.5,2092.0,214.1,638.5,1555.9,2120.5,101.3,66.1,13.5
0.077061,666.3,111.3,1537.9,100.5,2072.0,206.4,643.7,1549.4,2116.2,101.2,66.3,13.7
0.079061,667.5,105.5,1534.2,95.4,2063.9,193.5,648.7,1543.2,2112.2,101,66.4,13.6
0.081061,663.2,99.9,1531.3,88.5,2061.1,183.2,653.4,1537.4,2108.4,100.8,66.5,13.3
0.083061,653.3,101.8,1529.8,87.3,2062.1,182.0,657.8,1532.1,2104.9,100.7,66.5,12.8
0.085061,643.7,114.9,1530.8,92.7,2065.5,187.0,661.9,1527.2,2101.7,100.5,66.6,12.2
0.087061,642.1,127.6,1532.5,93.2,2067.5,183.2,665.7,1522.7,2098.8,100.3,66.6,12
0.089061,644.6,130.3,1532.5,87.3,2067.3,172.5,669.1,1518.8,2096.2,100.2,66.6,12.1
0.091061,647.0,129.1,1531.1,80.7,2068.6,162.2,672.2,1515.3,2093.9,100,66.6,12.6
0.093061,649.6,136.4,1528.1,80.0,2077.9,159.7,674.9,1512.3,2092,99.9,66.6,13.3
0.095061,655.4,155.6,1522.9,85.6,2094.7,162.4,677.4,1509.7,2090.4,99.8,66.7,14.1
0.097061,662.2,165.3,1517.4,86.6,2103.6,158.3,679.4,1507.7,2089.2,99.6,66.7,14.7
0.099061,665.9,159.5,1514.1,81.1,2103.2,149.1,681.2,1506.1,2088.3,99.5,66.7,14.9
0.101061,666.8,148.1,1512.2,75.2,2099.5,140.3,682.6,1504.9,2087.8,99.4,66.6,14.9
0.103061,665.6,139.8,1512.8,77.0,2096.3,139.6,683.8,1504.1,2087.7,99.3,66.5,14.7
0.105061,665.3,137.8,1518.7,93.9,2096.2,151.3,684.6,1503.7,2087.8,99.2,66.3,14.5
0.107061,667.4,133.3,1526.5,112.0,2097.8,159.6,685.2,1503.7,2088.3,99.1,66.2,14.4
0.109061,668.6,123.9,1528.3,113.1,2097.9,155.0,685.5,1504,2089.2,99,66.1,14.4
0.111061,668.3,115.4,1526.5,106.5,2097.6,147.4,685.6,1504.7,2090.3,98.9,66,14.7
0.113061,668.1,118.8,1526.3,104.9,2100.1,149.0,685.5,1505.6,2091.8,98.9,65.9,15
0.115061,671.6,143.0,1530.7,110.5,2107.3,162.9,685.1,1506.7,2093.5,98.8,65.8,15.3
0.117061,679.1,167.0,1533.8,108.9,2113.5,167.7,684.6,1508.1,2095.5,98.7,65.8,15.7
0.119061,684.0,168.2,1531.7,98.7,2114.4,158.7,684,1509.6,2097.7,98.7,65.7,15.9
0.121061,685.7,158.6,1527.0,87.9,2113.3,146.8,683.3,1511.2,2100.1,98.6,65.6,16.1
0.123061,685.0,154.4,1521.9,84.9,2112.8,139.9,682.4,1513,2102.7,98.6,65.5,16.3
0.125061,682.6,164.0,1516.8,98.0,2114.2,141.1,681.5,1514.7,2105.5,98.6,65.3,16.5
0.127061,680.6,173.1,1512.7,117.9,2115.7,140.4,680.6,1516.6,2108.4,98.5,65.1,16.7
0.129061,679.2,167.6,1510.0,121.0,2116.7,133.2,679.6,1518.4,2111.4,98.5,65,16.9
0.131061,677.0,155.3,1508.4,112.4,2118.4,125.3,678.6,1520.1,2114.5,98.4,64.9,17.2
0.133061,673.9,149.8,1509.5,108.5,2122.2,126.5,677.7,1521.8,2117.7,98.4,64.8,17.5
0.135061,672.6,158.3,1516.7,119.2,2129.4,143.4,676.7,1523.4,2120.9,98.4,64.8,17.9
0.137061,675.8,165.1,1526.2,129.4,2136.1,158.0,675.9,1524.9,2124.1,98.3,64.8,18.2
0.139061,678.8,158.1,1529.1,124.9,2138.6,155.9,675.1,1526.2,2127.3,98.3,64.8,18.4
0.141061,679.6,146.0,1527.0,114.0,2139.3,147.5,674.3,1527.4,2130.4,98.3,64.8,18.6
0.143061,677.9,140.9,1522.8,107.5,2141.0,145.8,673.7,1528.3,2133.5,98.2,64.8,18.8
0.145061,674.1,151.3,1518.4,111.0,2145.4,161.4,673.2,1529.1,2136.5,98.2,64.7,19
0.147061,672.3,164.1,1515.2,113.8,2149.5,179.9,672.7,1529.7,2139.3,98.1,64.7,19.2
0.149061,674.1,162.2,1512.5,106.5,2150.0,180.1,672.4,1530,2142,98.1,64.7,19.2
0.151061,677.3,152.2,1509.5,95.8,2149.0,171.5,672.2,1530.2,2144.6,98.1,64.8,19.3
0.153061,680.0,147.9,1507.6,91.4,2147.8,168.1,672.1,1530.1,2147,98,64.8,19.2
0.155061,682.0,158.4,1509.5,100.4,2146.0,178.3,672.2,1529.8,2149.1,98,64.9,19.2
0.157061,684.5,170.2,1514.1,111.6,2143.1,187.3,672.3,1529.3,2151.1,97.9,65,19.2
0.159061,686.8,166.9,1515.5,109.3,2140.6,182.3,672.5,1528.6,2152.9,97.9,65.1,19.3
0.161061,688.4,156.0,1514.3,100.1,2138.6,171.4,672.9,1527.7,2154.5,97.8,65.1,19.5
0.163061,688.8,149.9,1513.5,95.1,2138.0,164.7,673.3,1526.6,2155.8,97.8,65.1,19.7
0.165061,687.9,158.3,1516.5,104.4,2139.1,169.3,673.8,1525.3,2156.9,97.8,65.1,20
0.167061,688.2,170.6,1522.3,122.0,2139.7,176.8,674.3,1523.9,2157.8,97.7,65.1,20.2
0.169061,689.5,168.6,1523.9,125.2,2138.7,173.2,674.9,1522.4,2158.4,97.7,65.1,20.4
0.171061,689.9,157.6,1521.2,117.2,2137.3,163.9,675.5,1520.7,2158.8,97.6,65.1,20.7
0.173061,687.9,149.1,1517.4,111.0,2137.9,159.0,676.2,1519,2159,97.6,65.1,21
0.175061,683.1,152.1,1514.2,118.2,2142.9,167.7,676.9,1517.2,2159,97.5,65,21.3
0.177061,680.3,161.7,1512.1,135.5,2149.4,181.4,677.5,1515.3,2158.8,97.5,65,21.3
0.179061,681.7,161.4,1510.3,138.7,2151.2,179.8,678.1,1513.5,2158.4,97.4,65,20.9
0.181061,683.8,152.3,1508.2,128.5,2150.3,169.1,678.7,1511.6,2157.8,97.4,65,19.9
0.183061,683.9,144.0,1507.5,118.2,2149.2,160.7,679.2,1509.7,2157.1,97.3,64.9,18.7
0.185061,681.3,145.6,1510.5,117.9,2149.5,164.8,679.7,1507.9,2156.3,97.3,64.9,17.6
0.187061,679.1,156.3,1516.2,125.8,2151.0,180.1,680,1506.1,2155.3,97.2,64.9,16.9
0.189061,679.7,160.4,1516.6,124.9,2150.7,183.6,680.3,1504.4,2154.3,97.2,64.8,16.9
0.191061,680.7,155.1,1511.9,114.9,2148.8,175.0,680.4,1502.8,2153.2,97.2,64.8,17.7
0.193061,679.7,148.4,1506.8,105.4,2147.2,166.0,680.4,1501.3,2152,97.1,64.8,19
0.195061,676.0,148.7,1504.3,105.6,2147.4,167.7,680.3,1499.9,2150.8,97.1,64.7,20.2
0.197061,673.7,157.8,1506.4,118.2,2149.6,183.3,680,1498.7,2149.7,97,64.7,21.1
0.199061,675.6,161.9,1508.2,124.7,2151.0,191.0,679.6,1497.6,2148.5,96.9,64.6,21.1
0.201061,677.7,156.3,1505.9,118.0,2150.7,185.3,679,1496.7,2147.5,96.9,64.6,20.4
0.203061,676.4,147.9,1502.3,108.1,2150.3,178.7,678.3,1496,2146.5,96.8,64.6,19.4
0.205061,670.8,145.3,1501.6,103.2,2150.7,184.4,677.3,1495.4,2145.7,96.8,64.6,18.2
0.207061,664.7,152.0,1506.0,104.4,2151.2,207.5,676.2,1495,2144.9,96.7,64.6,17.3
0.209061,663.9,157.1,1508.8,101.5,2150.2,218.8,675,1494.7,2144.4,96.7,64.7,16.8
0.211061,665.4,154.0,1506.5,92.2,2148.6,209.9,673.5,1494.7,2144,96.6,64.7,16.6
0.213061,664.3,146.9,1502.3,82.7,2148.3,196.4,671.9,1494.8,2143.8,96.6,64.6,16.6
0.215061,657.3,143.2,1499.3,78.5,2152.3,191.3,670.2,1495,2143.9,96.5,64.5,16.7
0.217061,645.3,147.3,1500.7,84.6,2162.7,202.0,668.3,1495.5,2144.2,96.5,64.3,16.6
0.219061,638.9,152.3,1505.5,93.2,2171.6,211.2,666.2,1496,2144.8,96.4,64.1,16.3
0.221061,639.4,149.3,1506.9,91.7,2173.2,204.3,664,1496.7,2145.6,96.4,64,15.7
0.223061,640.0,141.5,1504.1,83.8,2171.0,190.1,661.7,1497.6,2146.7,96.3,63.9,14.9
0.225061,636.2,138.2,1500.6,78.3,2169.5,178.4,659.2,1498.5,2148.2,96.3,63.8,14.3
0.227061,628.2,149.0,1499.2,81.5,2170.6,173.5,656.7,1499.6,2149.9,96.2,63.7,13.8
0.229061,625.6,165.5,1501.2,87.6,2172.6,170.0,654,1500.8,2151.9,96.2,63.6,13.8
0.231061,631.1,168.8,1503.2,85.6,2174.2,161.9,651.3,1502,2154.3,96.1,63.6,14.3
0.233061,637.4,160.2,1503.3,78.7,2175.3,153.6,648.4,1503.3,2156.9,96.1,63.6,15
0.235061,639.2,155.6,1503.2,75.4,2176.8,153.3,645.6,1504.7,2159.9,96.1,63.5,15.7
0.237061,633.8,173.2,1505.8,85.5,2178.4,173.1,642.7,1506.1,2163.2,96,63.4,16.3
0.239061,628.5,209.6,1511.7,105.8,2178.7,200.0,639.7,1507.5,2166.7,96,63.3,16.5
0.241061,632.5,229.2,1515.5,113.7,2179.3,205.3,636.7,1508.9,2170.6,96,63.2,16.4
0.243061,640.6,220.9,1514.1,105.4,2180.9,194.0,633.8,1510.3,2174.7,96,63.2,16.2
0.245061,646.3,209.7,1510.5,94.6,2183.9,182.5,630.8,1511.7,2179,96,63.1,15.8
0.247061,648.4,219.5,1506.8,90.4,2188.7,181.6,627.8,1513.1,2183.6,96,63.1,15.6
0.249061,651.2,250.4,1504.9,93.3,2192.2,192.1,624.9,1514.5,2188.4,96,63.1,15.5
0.251061,658.6,264.8,1504.4,92.0,2192.0,195.3,622,1515.8,2193.4,96,63.1,15.4
0.253061,665.8,252.6,1503.6,83.6,2190.9,185.3,619.2,1517.1,2198.5,96,63.1,15.3
0.255061,669.5,238.5,1502.9,75.1,2190.7,172.8,616.5,1518.3,2203.8,96,63,15.3
0.257061,665.1,243.5,1503.8,72.8,2190.8,167.1,613.8,1519.4,2209.1,96,62.9,15.3
0.259061,649.8,272.1,1507.5,81.4,2188.3,173.9,611.2,1520.5,2214.6,96,62.8,15.6
0.261061,634.6,290.5,1511.9,91.1,2183.3,181.0,608.7,1521.5,2220.1,96,62.6,16.1
0.263061,630.6,278.8,1512.1,88.0,2180.8,176.2,606.3,1522.4,2225.5,96,62.5,16.8
0.265061,629.7,259.4,1509.5,79.2,2181.0,168.1,603.9,1523.3,2231,96.1,62.4,17.4
0.267061,623.0,252.5,1506.4,73.8,2183.4,167.3,601.7,1524,2236.4,96.1,62.3,17.7
0.269061,607.2,270.1,1504.5,77.5,2186.8,181.8,599.6,1524.8,2241.7,96.1,62.1,17.4
0.271061,594.6,294.4,1505.1,84.8,2189.0,199.1,597.7,1525.4,2246.9,96.2,62,16.4
0.273061,596.4,293.3,1506.1,82.3,2191.2,198.4,595.8,1526,2252,96.2,61.9,15
0.275061,601.6,276.0,1506.2,73.6,2195.1,189.9,594.1,1526.5,2256.8,96.2,61.8,13.7
0.277061,600.2,265.0,1506.7,66.1,2204.0,186.8,592.5,1526.9,2261.5,96.3,61.6,12.7
0.279061,587.9,279.1,1510.5,64.6,2223.0,200.8,591,1527.3,2265.8,96.3,61.5,12.3
0.281061,574.5,313.9,1520.5,67.6,2253.9,229.4,589.6,1527.6,2269.9,96.3,61.3,12.6
0.283061,575.4,326.8,1529.4,66.7,2276.3,243.0,588.4,1527.9,2273.8,96.4,61.1,13.2
0.285061,582.2,312.6,1532.5,61.5,2286.5,241.6,587.3,1528.2,2277.2,96.4,61,13.8
0.287061,585.7,295.3,1533.1,56.2,2294.2,237.1,586.3,1528.4,2280.3,96.4,60.8,14.2
0.289061,579.3,295.5,1534.9,55.2,2305.3,235.8,585.5,1528.5,2283.1,96.5,60.7,14.2
0.291061,563.5,308.8,1540.9,60.5,2321.7,238.7,584.8,1528.7,2285.5,96.5,60.5,13.8
0.293061,555.4,309.2,1548.3,64.4,2336.4,237.5,584.2,1528.8,2287.4,96.5,60.4,13.1
0.295061,559.1,297.7,1553.0,61.7,2347.9,230.7,583.7,1528.8,2288.9,96.6,60.3,12.5
0.297061,564.9,288.2,1556.1,56.5,2357.9,224.8,583.4,1528.9,2290,96.6,60.2,12.1
0.299061,562.5,293.6,1561.0,53.9,2363.4,227.5,583.2,1528.9,2290.7,96.6,60,12.2
0.301061,543.5,307.2,1570.8,56.3,2357.3,246.6,583.2,1528.9,2290.9,96.6,59.9,12.7
