time,f1,b1,f2,b2,f3,b3,f1p,f2p,f3p,f0,intensity,harmonicity
0.025898,408.0,57.8,1644.5,65.6,2362.9,181.3,437.9,1664.9,2351.4,94,55.6,13.6
0.027898,417.4,70.0,1647.4,76.6,2370.8,211.6,437.9,1665.1,2351.8,93.6,56.5,18.7
0.029898,427.3,77.5,1650.0,81.7,2374.5,216.0,438,1665.5,2352.4,93.3,57.2,14.4
0.031898,432.2,72.0,1653.0,73.8,2376.8,194.9,438.1,1666,2353.3,93,57.7,6.2
0.033898,434.2,61.6,1656.3,62.4,2380.2,169.3,438.2,1666.6,2354.4,92.7,58.2,-0.2
0.035898,435.7,51.2,1659.9,52.9,2385.4,148.4,438.3,1667.3,2355.7,92.3,58.5,-0.4
0.037898,437.8,46.7,1662.7,52.0,2390.8,146.4,438.5,1668.1,2357.3,92,58.8,1.9
0.039898,440.7,49.8,1664.0,64.1,2390.1,177.4,438.7,1669.1,2359,91.7,59.1,5.2
0.041898,442.9,52.4,1665.0,75.2,2379.2,212.2,439,1670.1,2361,91.4,59.4,8.8
0.043898,444.4,49.7,1667.9,72.4,2373.1,212.2,439.3,1671.2,2363,91.1,59.6,11.9
0.045898,445.7,44.6,1672.3,63.1,2374.9,189.6,439.7,1672.4,2365.2,90.8,59.7,14
0.047898,446.5,41.3,1676.3,56.3,2378.8,166.5,440.2,1673.6,2367.5,90.5,59.7,15.7
0.049898,446.5,44.4,1679.2,58.7,2377.1,164.3,440.7,1674.9,2369.9,90.3,59.7,17.1
0.051898,446.3,54.7,1680.9,71.3,2362.5,196.0,441.3,1676.2,2372.4,90,59.7,18.1
0.053898,447.4,59.5,1682.9,75.6,2347.6,221.7,442,1677.5,2374.8,89.8,59.7,18.9
0.055898,449.4,56.3,1686.0,68.4,2344.7,221.0,442.9,1678.7,2377.3,89.6,59.8,19.3
0.057898,451.1,51.5,1689.3,59.4,2351.7,206.6,443.8,1679.9,2379.7,89.4,59.8,19.3
0.059898,451.8,50.5,1692.8,55.0,2363.1,196.7,444.8,1681.1,2382.1,89.2,59.8,19
0.061898,451.3,59.1,1696.3,63.0,2369.7,215.6,446,1682.2,2384.4,89,59.8,18.5
0.063898,451.8,68.4,1699.1,75.9,2363.0,252.5,447.3,1683.2,2386.5,88.8,59.9,18
0.065898,453.9,66.9,1700.8,76.1,2355.8,262.1,448.8,1684,2388.5,88.6,60,17.5
0.067898,456.0,59.9,1701.8,67.6,2358.4,246.7,450.4,1684.8,2390.2,88.5,60.1,16.9
0.069898,457.5,53.0,1702.1,59.5,2368.2,229.0,452.1,1685.4,2391.8,88.3,60.1,16.3
0.071898,457.7,51.6,1700.5,59.5,2380.9,231.5,454.1,1685.7,2393.1,88.2,60.1,15.7
0.073898,457.2,57.7,1695.2,72.9,2385.9,265.3,456.1,1685.9,2394.1,88,60.1,15.2
0.075898,458.8,60.8,1688.5,86.6,2379.3,289.7,458.3,1685.9,2394.8,87.9,60.2,15
0.077898,462.0,55.6,1686.0,83.7,2375.4,276.7,460.7,1685.7,2395.2,87.8,60.2,15.1
0.079898,465.5,48.2,1685.8,73.0,2377.9,246.1,463.3,1685.1,2395.2,87.6,60.2,15.3
0.081898,468.4,43.4,1685.2,64.5,2384.4,216.9,466,1684.3,2394.8,87.5,60.2,15.5
0.083898,470.3,44.9,1682.2,66.1,2391.1,209.0,468.9,1683.3,2394,87.4,60.1,15.4
0.085898,472.4,52.0,1676.7,80.9,2390.8,231.5,471.9,1681.9,2392.8,87.2,60.1,14.9
0.087898,475.7,52.6,1673.6,89.5,2383.1,248.1,475.1,1680.2,2391.1,87.1,60.1,14
0.089898,479.7,45.8,1673.0,84.5,2376.4,243.4,478.4,1678.2,2389,87,60.1,12.8
0.091898,483.8,38.5,1673.1,75.6,2374.0,231.1,481.9,1675.8,2386.4,86.9,60.1,11.5
0.093898,487.6,36.0,1673.9,71.3,2377.1,228.9,485.5,1673,2383.4,86.7,60.1,10.4
0.095898,490.9,43.0,1675.3,77.6,2380.4,264.7,489.2,1670,2379.8,86.6,60.1,9.5
0.097898,493.0,53.8,1674.8,86.4,2367.8,325.4,493.1,1666.5,2375.8,86.5,60.1,8.7
0.099898,495.6,53.7,1671.0,83.6,2347.2,334.5,497,1662.6,2371.2,86.3,60.1,7.9
0.101898,499.5,46.1,1667.7,73.5,2342.6,295.7,501.1,1658.4,2366.2,86.2,60.1,7.3
0.103898,503.8,39.2,1665.0,65.1,2347.8,253.6,505.2,1653.8,2360.7,86.1,60.1,7
0.105898,508.3,36.3,1659.8,64.3,2354.1,226.7,509.4,1648.8,2354.7,86,59.9,7.1
0.107898,511.7,42.1,1647.2,80.6,2350.2,240.8,513.6,1643.4,2348.3,85.9,59.7,7.8
0.109898,513.7,53.7,1625.4,109.9,2324.8,284.0,517.9,1637.7,2341.4,85.8,59.6,8.8
0.111898,516.5,55.6,1613.3,116.8,2303.6,294.3,522.2,1631.5,2334,85.6,59.5,9.9
0.113898,521.1,48.5,1612.8,107.5,2300.7,281.7,526.5,1625,2326.2,85.5,59.5,10.8
0.115898,526.7,40.6,1615.2,98.2,2307.0,270.1,530.8,1618.1,2318,85.4,59.5,11.3
0.117898,532.5,39.4,1614.7,99.6,2315.7,283.8,535.1,1610.9,2309.5,85.3,59.5,11.6
0.119898,539.3,50.9,1605.2,115.1,2315.9,343.5,539.3,1603.3,2300.5,85.2,59.5,11.7
0.121898,545.5,67.5,1590.4,123.8,2301.4,384.9,543.5,1595.4,2291.3,85.1,59.5,11.7
0.123898,549.8,71.7,1581.2,116.7,2296.6,359.6,547.6,1587.1,2281.7,85,59.5,11.7
0.125898,552.9,64.7,1576.0,105.3,2302.7,313.1,551.7,1578.5,2271.9,84.9,59.4,11.8
0.127898,555.3,56.4,1571.1,98.7,2313.4,276.8,555.6,1569.6,2261.8,84.9,59.4,11.8
0.129898,558.0,55.3,1559.1,103.3,2326.8,265.0,559.5,1560.5,2251.5,84.8,59.4,11.9
0.131898,561.6,68.5,1531.9,117.9,2328.6,304.6,563.2,1551.1,2241,84.7,59.3,11.9
0.133898,565.2,82.8,1508.1,118.8,2311.3,356.0,566.8,1541.4,2230.4,84.6,59.3,11.8
0.135898,568.3,83.1,1497.1,106.0,2293.2,361.4,570.3,1531.5,2219.7,84.5,59.4,11.7
0.137898,570.1,73.0,1491.5,92.3,2284.1,337.5,573.7,1521.4,2209,84.4,59.4,11.6
0.139898,571.4,61.4,1486.0,82.6,2278.8,313.3,576.8,1511.2,2198.2,84.3,59.3,11.4
0.141898,573.7,58.8,1479.7,86.2,2271.6,324.0,579.9,1500.7,2187.4,84.3,59.3,11.2
0.143898,579.0,70.5,1474.2,106.9,2242.3,403.4,582.8,1490.1,2176.7,84.2,59.3,11
0.145898,585.5,82.8,1470.5,121.9,2180.9,488.5,585.5,1479.5,2166,84.1,59.4,10.9
0.147898,588.6,81.7,1466.4,118.0,2133.5,496.7,588,1468.7,2155.5,84,59.5,10.7
0.149898,589.3,73.6,1460.0,107.6,2102.0,460.0,590.4,1457.8,2145.1,84,59.5,10.6
0.151898,588.8,66.2,1451.5,100.3,2080.5,411.5,592.6,1446.9,2134.9,83.9,59.5,10.6
0.153898,589.0,66.5,1442.7,107.1,2066.3,383.4,594.6,1436,2125,83.8,59.4,10.5
0.155898,592.9,78.7,1436.0,145.5,2054.9,394.0,596.5,1425,2115.3,83.7,59.4,10.6
0.157898,598.7,86.8,1434.5,189.4,2044.8,405.7,598.2,1414.1,2105.9,83.7,59.4,10.7
0.159898,601.5,81.2,1430.8,197.3,2038.4,378.7,599.8,1403.2,2096.8,83.6,59.4,10.9
0.161898,601.5,70.9,1423.2,181.9,2035.8,331.9,601.3,1392.4,2088.1,83.5,59.4,11.1
0.163898,600.4,63.9,1413.6,168.8,2033.9,291.2,602.5,1381.7,2079.7,83.5,59.4,11.3
0.165898,599.4,66.5,1398.2,178.1,2032.7,271.2,603.7,1371.1,2071.8,83.4,59.3,11.4
0.167898,601.5,82.3,1376.3,222.6,2035.3,276.5,604.7,1360.6,2064.3,83.3,59.3,11.4
0.169898,606.3,91.6,1357.3,256.8,2039.6,269.8,605.7,1350.2,2057.2,83.3,59.4,11.4
0.171898,608.9,84.7,1350.1,248.4,2044.2,245.4,606.5,1340.1,2050.6,83.2,59.5,11.5
0.173898,609.2,74.4,1346.3,228.5,2046.9,220.4,607.2,1330.1,2044.4,83.2,59.5,11.6
0.175898,607.9,67.1,1340.6,216.1,2047.5,201.5,607.9,1320.3,2038.8,83.1,59.3,11.9
0.177898,606.1,71.4,1329.0,232.2,2042.9,201.2,608.5,1310.7,2033.7,83.1,59.2,12.4
0.179898,606.3,94.8,1301.1,286.4,2019.5,223.7,609.1,1301.3,2029,83.1,59,12.9
0.181898,610.1,112.7,1274.8,312.0,1991.2,234.9,609.6,1292.2,2024.9,83.1,58.9,13.5
0.183898,613.5,107.3,1268.0,293.0,1982.5,227.5,610,1283.3,2021.3,83,58.9,14.1
0.185898,615.6,94.7,1267.0,264.7,1981.8,217.9,610.5,1274.6,2018.3,83,58.9,14.6
0.187898,616.5,86.6,1265.4,247.1,1980.8,217.7,610.9,1266.3,2015.7,83,58.8,15.1
0.189898,617.7,91.5,1261.0,255.5,1978.3,241.3,611.4,1258.2,2013.7,83,58.8,15.6
0.191898,621.9,114.3,1253.0,293.7,1984.9,277.2,611.8,1250.4,2012.2,83,58.8,16
0.193898,626.4,125.2,1243.3,304.5,2001.3,265.2,612.3,1242.9,2011.2,83,58.9,16.3
0.195898,628.3,115.3,1236.9,281.1,2014.0,227.3,612.8,1235.6,2010.7,83,59,16.5
0.197898,628.4,101.2,1233.2,252.5,2020.0,197.5,613.3,1228.7,2010.7,83.1,59.1,16.5
0.199898,627.4,91.2,1229.9,229.6,2022.4,179.6,613.9,1222.1,2011.1,83.1,59.1,16.4
0.201898,625.5,95.8,1226.2,228.2,2023.6,181.6,614.5,1215.7,2012,83.1,59.1,16.2
0.203898,622.8,115.8,1216.0,244.6,2023.6,192.4,615.2,1209.6,2013.3,83.1,59.2,16.1
0.205898,620.7,124.5,1199.5,242.8,2023.7,179.8,615.9,1203.9,2015,83.2,59.3,16
0.207898,620.6,113.3,1189.8,221.8,2027.4,153.5,616.6,1198.4,2017.1,83.2,59.4,16.2
0.209898,620.9,96.5,1184.6,195.0,2032.7,127.5,617.5,1193.1,2019.6,83.3,59.4,16.3
0.211898,619.7,83.1,1179.1,170.0,2038.3,107.8,618.3,1188.2,2022.5,83.3,59.3,16.4
0.213898,615.7,80.8,1170.0,157.2,2045.7,102.5,619.3,1183.5,2025.6,83.4,59.2,16.3
0.215898,610.3,97.2,1156.7,165.7,2058.5,123.3,620.2,1179.1,2029.1,83.4,59.2,15.9
0.217898,611.2,114.2,1149.5,180.3,2071.4,148.5,621.2,1174.9,2032.8,83.5,59.2,15
0.219898,616.6,113.6,1149.7,182.3,2078.6,145.7,622.3,1171,2036.8,83.6,59.2,13.9
0.221898,620.1,102.6,1150.8,172.1,2080.2,126.7,623.4,1167.2,2040.9,83.6,59.2,12.8
0.223898,620.0,92.0,1148.9,159.5,2078.7,109.7,624.4,1163.8,2045.3,83.7,59.1,12
0.225898,617.3,92.8,1145.2,163.0,2077.1,104.3,625.6,1160.5,2049.8,83.8,59,11.8
0.227898,617.3,116.2,1145.1,203.6,2079.6,118.4,626.7,1157.4,2054.5,83.8,59,12
0.229898,623.5,136.0,1150.3,244.2,2084.9,129.1,627.8,1154.5,2059.2,83.9,59.1,12.4
0.231898,627.2,128.6,1154.6,241.0,2088.4,119.2,628.8,1151.8,2064.1,83.9,59.2,13.1
0.233898,626.6,112.6,1155.1,220.3,2089.6,103.4,629.9,1149.2,2069,84,59.2,13.8
0.235898,622.8,98.0,1152.0,200.5,2088.6,89.3,630.9,1146.8,2073.9,84,59.2,14.6
0.237898,618.0,95.1,1146.9,201.8,2084.8,87.4,631.8,1144.5,2078.9,84.1,59.3,15.7
0.239898,617.1,110.0,1141.3,234.5,2077.4,108.6,632.7,1142.4,2083.8,84.1,59.3,16.9
0.241898,621.7,119.0,1139.6,252.6,2073.6,132.6,633.5,1140.4,2088.6,84.2,59.5,18.1
0.243898,624.3,110.9,1140.9,239.1,2077.1,132.6,634.3,1138.4,2093.5,84.2,59.6,19
0.245898,623.9,97.4,1142.0,216.1,2083.2,119.2,634.9,1136.6,2098.2,84.2,59.7,19.3
0.247898,622.3,89.0,1142.0,200.8,2089.7,106.8,635.4,1134.9,2102.8,84.2,59.7,19.3
0.249898,623.3,97.9,1142.0,209.0,2100.3,105.1,635.8,1133.2,2107.3,84.2,59.8,18.9
0.251898,633.7,130.6,1142.6,239.9,2115.2,112.7,636,1131.6,2111.7,84.2,59.9,18.4
0.253898,644.1,147.0,1143.0,246.2,2124.5,108.9,636.1,1130,2115.9,84.3,60,18.1
0.255898,645.9,138.0,1142.3,225.3,2128.0,95.7,636.1,1128.5,2120,84.2,60.1,18
0.257898,642.7,121.9,1139.3,199.2,2128.5,82.8,635.9,1127,2123.9,84.2,60.1,18
0.259898,637.5,107.5,1133.8,177.8,2127.7,73.2,635.6,1125.6,2127.6,84.2,60,18.1
0.261898,632.8,105.6,1126.2,177.8,2126.1,75.6,635,1124.2,2131.1,84.2,59.8,18.2
0.263898,631.6,120.0,1120.4,204.5,2124.4,100.8,634.4,1122.8,2134.4,84.2,59.6,18.3
0.265898,633.6,128.7,1121.6,219.9,2126.4,130.9,633.5,1121.4,2137.6,84.1,59.5,18.3
0.267898,633.9,121.0,1124.5,205.5,2130.9,130.5,632.5,1120,2140.5,84.1,59.4,18.1
0.269898,632.2,108.5,1125.1,182.8,2133.1,116.8,631.3,1118.7,2143.2,84.1,59.3,17.8
0.271898,629.7,100.8,1124.1,170.4,2131.2,107.4,630,1117.3,2145.7,84,59.1,17.6
0.273898,628.4,107.5,1122.3,190.2,2125.1,112.7,628.5,1115.9,2148,84,59,17.6
0.275898,630.9,125.8,1117.3,253.6,2118.6,129.5,626.8,1114.6,2150,83.9,59,17.8
0.277898,633.1,127.2,1111.9,288.7,2119.6,129.1,625,1113.2,2151.9,83.8,59,18.5
0.279898,631.5,114.5,1110.6,275.4,2125.7,114.3,623.1,1111.9,2153.6,83.8,59,19.5
0.281898,628.1,100.7,1110.5,249.1,2131.7,100.1,621,1110.5,2155.1,83.7,59,20.3
0.283898,624.9,94.1,1110.2,236.3,2136.5,93.4,618.8,1109.1,2156.4,83.7,58.9,20.7
0.285898,622.5,100.3,1106.6,248.5,2138.3,100.3,616.5,1107.8,2157.5,83.6,58.9,20.4
0.287898,621.7,113.0,1098.7,265.6,2134.6,117.6,614.2,1106.4,2158.5,83.5,58.8,19.3
0.289898,620.9,110.9,1095.8,254.4,2134.1,119.9,611.7,1105.1,2159.3,83.5,58.8,17.8
0.291898,619.4,97.8,1099.1,229.5,2140.2,107.9,609.2,1103.8,2160,83.4,58.8,16.2
0.293898,617.4,85.9,1103.7,209.3,2148.7,96.6,606.6,1102.5,2160.5,83.3,58.8,15.1
0.295898,614.6,80.7,1108.9,201.3,2160.3,91.7,604.1,1101.2,2160.9,83.2,58.7,14.7
0.297898,611.1,88.7,1109.2,211.1,2173.5,103.1,601.5,1100,2161.2,83.2,58.6,15
0.299898,608.8,105.7,1100.4,227.0,2183.2,138.4,598.9,1098.7,2161.4,83.1,58.7,15.7
0.301898,607.5,103.1,1092.0,216.4,2179.3,161.7,596.3,1097.5,2161.5,83,58.8,16.5
0.303898,605.6,87.0,1089.7,191.9,2172.6,153.7,593.8,1096.4,2161.5,83,58.9,17.1
0.305898,603.3,71.1,1091.3,170.7,2171.8,135.3,591.4,1095.3,2161.4,82.9,58.9,17.3
0.307898,599.3,61.1,1093.4,160.3,2175.0,120.1,589,1094.2,2161.3,82.9,58.8,17.4
0.309898,591.5,60.2,1091.0,167.7,2176.5,110.7,586.7,1093.2,2161.2,82.8,58.6,17.4
0.311898,582.9,69.4,1080.6,192.1,2169.6,102.7,584.6,1092.3,2161,82.7,58.6,17.2
0.313898,581.1,71.9,1075.3,201.7,2163.5,91.9,582.5,1091.4,2160.8,82.7,58.6,16.8
0.315898,583.2,64.1,1079.9,197.8,2162.9,82.1,580.6,1090.6,2160.6,82.6,58.6,16.2
0.317898,584.9,54.8,1087.7,192.7,2165.4,75.8,578.9,1089.9,2160.4,82.6,58.5,15.2
0.319898,584.3,48.4,1094.7,196.6,2170.0,74.1,577.4,1089.2,2160.2,82.6,58.4,14
0.321898,578.6,51.3,1093.9,226.8,2175.7,81.1,576,1088.6,2160,82.5,58.2,12.8
0.323898,566.9,65.8,1082.5,278.6,2177.4,93.0,574.8,1088.2,2159.8,82.5,58,11.7
0.325898,555.5,76.4,1076.1,298.0,2170.4,94.0,573.8,1087.7,2159.6,82.4,57.8,10.7
0.327898,551.6,72.4,1080.4,284.4,2163.3,86.8,573.1,1087.4,2159.5,82.4,57.6,9.7
0.329898,551.6,64.9,1090.2,274.4,2160.0,80.1,572.5,1087.2,2159.4,82.4,57.4,8.9
0.331898,551.0,62.1,1101.8,285.5,2160.0,78.7,572.2,1087.1,2159.4,82.4,57.1,8
0.333898,544.9,70.9,1110.5,333.5,2161.6,91.3,572.1,1087,2159.3,82.3,56.8,7.3
