time,f1,b1,f2,b2,f3,b3,f1p,f2p,f3p,f0,intensity,harmonicity
0.025129,307.8,85.4,2120.8,89.3,2836.6,348.5,309.7,2138.1,2854.4,95.8,53.6,6.5
0.027129,306.9,112.6,2129.1,90.6,2863.3,329.9,310.8,2137.8,2852.8,95.7,54.4,8
0.029129,309.1,148.9,2131.0,93.8,2859.9,335.7,312.6,2137.3,2850.2,95.5,55,9
0.031129,313.7,158.8,2130.7,89.2,2846.3,336.0,315,2136.7,2846.6,95.4,55.5,9
0.033129,318.3,147.5,2132.0,79.5,2838.7,323.3,318,2136,2842.3,95.2,55.8,8.6
0.035129,321.3,131.5,2134.7,70.7,2835.7,310.3,321.4,2135.3,2837.4,95.1,56,8.2
0.037129,324.4,126.9,2138.1,70.0,2832.1,314.0,325.2,2134.7,2832.1,94.9,56.2,8.1
0.039129,331.5,144.5,2143.3,85.3,2824.4,345.0,329.2,2134.2,2826.4,94.7,56.4,8.4
0.041129,340.1,159.5,2147.9,102.7,2816.9,366.2,333.3,2133.9,2820.6,94.6,56.7,9.4
0.043129,345.7,149.1,2149.5,104.0,2810.6,361.1,337.5,2133.9,2814.8,94.4,57,10.5
0.045129,347.6,127.0,2148.9,95.5,2805.8,346.3,341.6,2134.1,2809,94.2,57.3,11.6
0.047129,348.0,109.9,2147.2,87.7,2804.0,336.6,345.4,2134.6,2803.2,94.1,57.7,12.3
0.049129,348.5,108.3,2143.6,86.4,2807.5,341.2,349.1,2135.3,2797.4,93.9,58,12.3
0.051129,350.1,117.8,2140.0,88.6,2807.7,350.6,352.4,2136.2,2791.6,93.7,58.4,11.5
0.053129,352.1,116.7,2138.5,86.3,2798.5,349.1,355.3,2137.1,2785.5,93.6,58.8,10.4
0.055129,354.1,103.1,2138.1,80.8,2785.5,338.8,357.9,2138,2778.9,93.4,59.1,9.3
0.057129,356.1,88.0,2137.2,77.4,2770.6,330.1,360,2138.7,2771.8,93.2,59.3,8.5
0.059129,358.7,82.1,2133.7,83.0,2752.9,342.0,361.8,2139.1,2763.7,93.1,59.5,8.4
0.061129,361.3,95.6,2127.6,99.0,2740.6,385.7,363.3,2139,2754.5,92.9,59.7,8.9
0.063129,362.8,114.8,2123.5,107.2,2736.3,422.7,364.5,2138.4,2743.8,92.8,60,9.7
0.065129,363.8,116.9,2121.9,102.5,2730.6,426.9,365.5,2137,2731.6,92.6,60.1,10.7
0.067129,365.1,105.7,2120.7,95.8,2719.9,413.2,366.4,2134.7,2717.5,92.5,60.2,11.4
0.069129,367.3,92.6,2119.8,95.2,2702.6,398.3,367.2,2131.5,2701.5,92.4,60.3,11.7
0.071129,370.0,92.2,2121.4,110.7,2681.3,410.2,368.1,2127.3,2683.6,92.2,60.4,11.7
0.073129,371.5,105.2,2124.4,140.2,2652.4,452.0,369,2122.1,2663.7,92.1,60.5,11.4
0.075129,371.6,109.8,2121.2,151.6,2624.9,466.2,370.1,2115.9,2641.9,92,60.5,11.2
0.077129,372.5,101.7,2114.7,143.3,2613.4,454.6,371.4,2108.7,2618.5,91.8,60.5,11.2
0.079129,375.0,89.8,2106.0,131.3,2606.7,444.2,373,2100.6,2593.7,91.7,60.5,11.5
0.081129,378.5,88.5,2094.2,128.6,2589.4,464.7,374.8,2091.7,2567.9,91.6,60.5,12.2
0.083129,381.3,111.3,2081.9,138.2,2547.2,528.2,377,2082.1,2541.4,91.5,60.4,13.1
0.085129,380.7,143.5,2075.8,143.2,2508.3,563.3,379.4,2072.1,2514.7,91.4,60.4,14
0.087129,379.8,152.8,2071.2,137.4,2492.2,551.6,382.2,2061.6,2488.2,91.2,60.3,14.7
0.089129,381.5,141.4,2064.9,128.2,2482.8,524.0,385.2,2050.8,2462.4,91.1,60.3,15
0.091129,386.3,130.6,2056.1,128.7,2461.1,498.8,388.4,2039.9,2437.7,91,60.2,15
0.093129,393.4,144.1,2040.0,158.2,2407.6,458.8,391.8,2028.8,2414.5,90.9,60.1,14.9
0.095129,397.4,182.0,2016.5,201.5,2360.4,388.2,395.3,2017.8,2393.2,90.8,60.1,14.6
0.097129,397.1,204.3,1999.9,209.2,2347.8,341.3,398.9,2006.7,2374,90.7,60,14.4
0.099129,397.5,198.2,1991.8,191.4,2350.4,317.4,402.5,1995.6,2357.1,90.5,59.9,14.2
0.101129,401.2,180.0,1986.2,172.2,2355.5,309.6,406,1984.5,2342.5,90.4,59.9,13.9
0.103129,409.0,177.2,1976.3,170.5,2352.4,326.1,409.4,1973.1,2330.3,90.3,59.8,13.6
0.105129,417.5,213.9,1960.6,200.5,2329.8,353.0,412.6,1961.5,2320.4,90.2,59.7,13.3
0.107129,419.1,251.5,1940.4,231.5,2304.3,326.8,415.7,1949.3,2312.5,90.1,59.7,13.1
0.109129,416.8,251.8,1920.6,231.2,2295.1,275.4,418.5,1936.6,2306.4,89.9,59.7,12.7
0.111129,415.9,226.3,1909.0,212.4,2296.7,238.7,421.1,1923.1,2301.7,89.8,59.7,12.4
0.113129,419.1,199.5,1899.7,197.2,2300.7,220.9,423.5,1908.7,2298.2,89.7,59.6,12
0.115129,427.4,202.2,1884.2,205.0,2299.6,227.9,425.6,1893.3,2295.4,89.6,59.7,11.7
0.117129,434.2,231.9,1864.0,223.5,2291.8,233.1,427.4,1876.7,2293,89.4,59.7,11.4
0.119129,434.6,249.5,1847.8,226.4,2285.9,215.4,429.1,1859,2290.6,89.3,59.8,11.4
0.121129,432.2,243.0,1838.5,216.4,2284.9,192.3,430.5,1840.1,2287.9,89.2,59.8,11.5
0.123129,430.2,223.9,1830.9,203.4,2286.2,172.3,431.7,1820.2,2284.6,89.1,59.8,11.7
0.125129,431.0,210.0,1817.1,199.4,2285.3,163.5,432.8,1799.3,2280.6,88.9,59.7,12
0.127129,434.9,221.6,1788.4,213.3,2276.4,171.6,433.7,1777.7,2275.8,88.8,59.6,12.2
0.129129,437.7,247.7,1756.2,228.1,2262.8,176.3,434.5,1755.7,2270.1,88.7,59.6,12.3
0.131129,437.2,259.6,1738.2,230.1,2256.5,164.2,435.1,1733.6,2263.7,88.6,59.5,12.2
0.133129,435.3,261.2,1727.7,227.5,2256.3,146.7,435.7,1711.7,2256.7,88.5,59.4,12.1
0.135129,433.2,269.1,1716.4,226.9,2258.8,134.0,436.2,1690.5,2249.2,88.4,59.2,12
0.137129,431.9,310.1,1691.7,226.2,2259.1,135.6,436.6,1670.5,2241.6,88.3,59,11.9
0.139129,431.6,394.2,1655.7,215.4,2248.7,163.6,437,1652,2234.1,88.2,58.8,11.8
0.141129,432.0,452.2,1634.9,206.3,2230.4,194.0,437.3,1635.6,2227.2,88.1,58.7,12
0.143129,432.9,463.2,1622.9,195.9,2220.0,194.5,437.5,1621.5,2220.9,88,58.6,12.2
0.145129,433.5,449.0,1612.6,181.7,2218.4,176.0,437.7,1610.1,2215.8,87.9,58.4,12.3
0.147129,434.5,425.9,1599.3,163.6,2217.3,155.2,437.9,1601.8,2211.9,87.8,58.3,12
0.149129,441.5,392.4,1577.5,134.9,2205.8,139.5,438,1596.7,2209.5,87.8,58.2,11.1
0.151129,456.5,333.3,1556.3,100.4,2177.5,126.6,438,1595,2208.7,87.7,58.1,9.8
