time,f1,b1,f2,b2,f3,b3,f1p,f2p,f3p,f0,intensity,harmonicity
0.025506,477.7,118.1,1805.6,106.2,2457.3,248.6,484,1778.7,2461.8,101.8,61.5,9.2
0.027506,481.7,110.2,1799.1,98.3,2457.3,230.6,484.5,1777.4,2460.1,102,61.6,8.2
0.029506,483.2,99.2,1791.3,91.5,2458.9,216.2,485.5,1775.2,2457.3,102.1,61.7,8.1
0.031506,484.2,93.5,1776.1,90.0,2457.3,207.0,486.8,1772.3,2453.4,102.3,61.7,8.6
0.033506,487.1,93.5,1758.3,90.1,2453.4,201.0,488.5,1768.6,2448.7,102.5,61.8,9.1
0.035506,492.0,88.5,1748.3,83.9,2450.0,189.7,490.6,1764.3,2443.2,102.7,61.9,9.5
0.037506,496.2,77.9,1746.5,74.1,2447.7,174.3,492.9,1759.5,2437.2,102.9,61.8,9.5
0.039506,498.6,69.8,1747.1,66.3,2445.0,161.5,495.5,1754.2,2430.8,103.1,61.6,8.8
0.041506,499.4,71.3,1744.9,63.0,2434.7,156.2,498.4,1748.5,2424.2,103.3,61.4,7.5
0.043506,499.8,86.0,1737.2,63.1,2415.7,159.7,501.5,1742.6,2417.6,103.5,61.1,6.2
0.045506,502.5,100.9,1728.1,61.3,2399.5,162.9,504.7,1736.6,2411.2,103.7,60.8,5.1
0.047506,508.1,98.7,1721.7,57.6,2392.1,163.5,508.1,1730.6,2405.2,103.9,60.7,4.7
0.049506,514.0,87.8,1716.2,57.5,2386.9,172.5,511.6,1724.6,2399.6,104.1,60.7,5.3
0.051506,519.0,79.6,1709.0,65.7,2376.4,201.8,515.1,1718.8,2394.7,104.3,60.8,6.7
0.053506,523.0,75.0,1701.5,75.5,2365.3,229.4,518.6,1713.3,2390.4,104.6,61,8.4
0.055506,526.9,69.1,1697.0,76.2,2365.1,232.9,522.1,1708,2386.9,104.8,61.1,9.7
0.057506,530.8,63.6,1696.4,71.7,2375.6,223.4,525.5,1703.1,2384.2,105,61.1,10.3
0.059506,534.2,62.3,1698.5,70.3,2389.3,213.6,528.7,1698.5,2382.3,105.2,61,9.8
0.061506,536.7,68.6,1702.5,75.7,2401.2,205.1,531.8,1694.3,2381,105.5,60.7,8.5
0.063506,537.7,79.6,1705.1,83.6,2406.6,196.3,534.6,1690.5,2380.4,105.7,60.5,7
0.065506,538.1,83.1,1703.6,84.7,2406.8,183.4,537.2,1687,2380.2,105.9,60.5,5.6
0.067506,537.8,75.9,1698.2,81.4,2401.8,173.6,539.5,1683.9,2380.5,106.2,60.6,4.7
0.069506,537.0,69.0,1689.6,81.2,2389.4,176.5,541.6,1681,2380.9,106.4,60.9,4.7
0.071506,536.9,64.9,1679.3,80.9,2371.7,182.9,543.3,1678.3,2381.5,106.6,61.3,5.2
0.073506,538.2,59.6,1673.4,74.3,2362.9,176.3,544.7,1675.8,2381.9,106.9,61.7,5.8
0.075506,540.3,54.0,1672.8,65.6,2366.6,162.0,545.7,1673.4,2382.1,107.1,61.8,6.3
0.077506,542.0,53.7,1675.0,60.9,2377.3,152.7,546.5,1671.1,2382,107.3,61.9,6.4
0.079506,542.9,64.9,1676.5,62.9,2386.3,154.1,547,1668.8,2381.3,107.6,61.8,5.9
0.081506,543.7,88.8,1674.4,66.6,2389.1,155.9,547.2,1666.5,2380,107.8,61.7,5
0.083506,544.8,104.3,1670.4,64.4,2388.1,146.5,547.2,1664.1,2378.1,108.1,61.7,4
0.085506,545.6,98.1,1665.8,58.5,2385.9,132.0,547,1661.6,2375.4,108.3,61.7,3.2
0.087506,544.5,81.2,1659.3,55.3,2379.7,125.8,546.6,1659,2372.1,108.6,61.8,2.8
0.089506,542.9,69.4,1649.5,58.8,2365.8,138.3,546.2,1656.3,2368,108.8,62,3
0.091506,543.1,63.1,1639.6,65.0,2346.7,164.2,545.6,1653.5,2363.5,109.1,62.1,3.7
0.093506,545.2,57.1,1635.1,65.1,2334.7,176.6,545,1650.6,2358.4,109.4,62.1,4.6
0.095506,547.8,51.4,1634.8,61.8,2332.8,170.2,544.5,1647.6,2353,109.6,62,5.4
0.097506,549.9,53.3,1637.6,64.7,2337.8,159.6,543.9,1644.7,2347.4,109.9,61.7,5.9
0.099506,551.2,65.0,1641.2,74.8,2343.4,152.9,543.5,1641.7,2341.8,110.2,61.5,5.9
0.101506,552.8,75.6,1642.6,79.9,2347.4,142.9,543.2,1638.9,2336.4,110.5,61.3,5.7
0.103506,553.6,73.6,1640.6,75.5,2349.8,130.8,543,1636.2,2331.3,110.8,61.1,5.4
0.105506,550.4,66.1,1635.4,70.9,2348.4,126.3,542.9,1633.7,2326.8,111.1,61.1,5.3
0.107506,542.8,62.3,1627.6,73.4,2336.9,142.7,543,1631.4,2323.1,111.4,61.2,5.4
0.109506,538.0,63.1,1623.3,80.5,2317.0,178.3,543.2,1629.4,2320.2,111.7,61.2,6.1
0.111506,539.3,63.5,1624.9,84.9,2299.0,213.4,543.6,1627.7,2318.4,112,61.2,7.1
0.113506,543.3,62.6,1628.1,87.2,2292.7,234.7,543.9,1626.3,2317.7,112.3,61.2,8.2
0.115506,545.7,67.4,1630.2,92.2,2301.7,241.2,544.3,1625.3,2318.1,112.6,61,9.1
0.117506,544.2,79.3,1629.0,95.0,2316.2,224.2,544.7,1624.6,2319.8,112.9,60.9,9.7
0.119506,542.2,87.2,1626.9,89.0,2325.3,198.9,545,1624.2,2322.7,113.2,60.6,9.7
0.121506,542.4,85.5,1626.5,80.4,2333.1,181.2,545.1,1624.1,2326.7,113.5,60.4,9.4
0.123506,542.9,80.0,1626.1,80.2,2341.4,190.8,545,1624.2,2331.7,113.8,60.2,8.9
0.125506,541.5,78.6,1623.1,97.3,2354.7,263.5,544.6,1624.5,2337.6,114.1,60,8.5
0.127506,541.0,81.0,1620.0,125.4,2372.8,445.8,543.8,1624.9,2344.3,114.4,59.8,8.2
0.129506,543.5,84.8,1626.1,137.7,2398.7,810.7,542.5,1625.4,2351.5,114.7,59.5,8.2
0.131506,546.8,92.1,1637.3,125.4,2409.6,1262.3,540.8,1625.9,2359.1,115,59.2,8.2
0.133506,546.8,108.5,1641.2,119.4,2358.6,1374.2,538.5,1626.3,2366.8,115.3,58.8,8.3
0.135506,541.2,133.3,1633.8,122.2,2303.4,1100.5,535.5,1626.5,2374.5,115.6,58.4,8.6
0.137506,533.8,152.1,1625.2,114.8,2303.6,860.7,532,1626.4,2381.8,115.9,57.9,8.9
0.139506,524.7,161.6,1622.6,100.0,2333.6,712.0,527.8,1626.1,2388.6,116.1,57.6,9.4
0.141506,509.0,163.7,1623.3,87.4,2375.5,633.8,522.9,1625.3,2394.7,116.4,57.3,10
0.143506,492.1,157.4,1622.7,81.0,2419.3,623.1,517.4,1624.2,2400,116.6,57.1,10.7
0.145506,486.0,144.2,1620.2,79.6,2453.7,671.2,511.3,1622.7,2404.3,116.9,57,11.4
0.147506,489.8,132.3,1620.2,83.7,2461.3,713.4,504.7,1620.7,2407.6,117.1,57,11.9
0.149506,493.1,122.3,1620.8,97.5,2440.9,644.9,497.6,1618.4,2409.8,117.3,57.1,12.2
0.151506,493.2,111.8,1615.5,122.3,2413.6,491.2,490.1,1615.6,2410.9,117.5,57.3,12.4
0.153506,493.1,103.2,1606.4,142.5,2399.2,367.0,482.3,1612.4,2410.9,117.7,57.4,12.6
0.155506,492.3,96.0,1601.5,151.9,2393.1,281.1,474.3,1609,2409.9,117.8,57.5,12.7
0.157506,486.9,91.3,1601.9,159.9,2390.3,224.0,466.3,1605.3,2408,118,57.5,12.7
0.159506,476.8,89.6,1600.8,179.2,2390.4,183.9,458.4,1601.5,2405.4,118.1,57.5,12.6
0.161506,467.6,91.2,1595.4,215.1,2395.6,152.1,450.7,1597.7,2402.3,118.3,57.4,12.3
0.163506,463.2,95.3,1589.0,256.8,2402.4,130.0,443.3,1593.9,2398.7,118.4,57.3,12
0.165506,458.6,102.4,1580.7,306.1,2406.0,118.0,436.5,1590.2,2395,118.5,57.1,11.8
0.167506,448.6,117.1,1569.4,381.8,2403.7,123.1,430.2,1586.8,2391.3,118.6,56.8,11.6
0.169506,435.5,138.2,1561.0,484.7,2395.0,150.4,424.7,1583.7,2387.7,118.7,56.6,11.6
0.171506,422.6,155.3,1563.4,566.0,2380.3,202.4,420,1581.1,2384.6,118.8,56.3,11.7
0.173506,409.2,157.7,1574.6,546.9,2367.9,265.4,416.3,1578.9,2382,118.8,56.1,11.8
0.175506,392.3,146.4,1589.5,422.4,2368.4,330.7,413.6,1577.3,2380,118.9,55.8,11.9
0.177506,379.8,131.1,1602.6,286.7,2381.0,359.1,411.9,1576.4,2378.8,118.9,55.6,12
0.179506,376.4,121.2,1617.8,195.1,2392.0,333.7,411.4,1576.1,2378.3,119,55.3,12.1
