time,f1,b1,f2,b2,f3,b3,f1p,f2p,f3p,f0,intensity,harmonicity
0.025340,505.5,22.1,2428.7,188.8,3083.1,333.2,512,2478.8,3216.3,246,75.8,11
0.027340,502.9,23.8,2452.0,159.0,3127.2,345.3,511.6,2479.6,3217.2,245.7,75.9,13.1
0.029340,500.9,25.6,2463.4,129.1,3163.2,334.6,510.8,2480.9,3218.6,245.4,76,15.4
0.031340,499.6,27.3,2468.5,109.1,3186.9,318.8,509.8,2482.7,3220.5,245,75.9,17.9
0.033340,499.1,28.9,2472.7,97.7,3204.2,309.9,508.6,2485,3222.9,244.7,75.9,20.1
0.035340,499.2,30.2,2477.7,94.4,3218.4,314.0,507.1,2487.7,3225.7,244.3,75.9,21.8
0.037340,499.6,31.2,2484.4,98.2,3232.4,327.7,505.5,2490.9,3229,243.9,75.8,23
0.039340,500.1,32.0,2492.6,107.6,3247.6,338.9,503.8,2494.4,3232.7,243.5,75.8,23.9
0.041340,500.4,32.7,2501.0,120.3,3260.8,337.2,502,2498.2,3236.7,243.1,75.8,24.5
0.043340,500.6,33.7,2509.1,133.1,3269.1,324.4,500.2,2502.4,3240.9,242.7,75.7,24.8
0.045340,501.0,35.3,2515.7,140.2,3271.5,311.3,498.4,2506.8,3245.4,242.2,75.7,24.8
0.047340,501.5,37.6,2522.2,140.1,3272.2,306.7,496.8,2511.5,3250,241.8,75.7,24.5
0.049340,502.4,40.3,2530.2,137.2,3278.3,317.0,495.3,2516.3,3254.6,241.3,75.7,23.7
0.051340,503.0,42.4,2539.9,136.9,3294.9,342.2,494,2521.1,3259.3,240.9,75.6,22.7
0.053340,503.1,43.3,2550.8,141.0,3319.0,373.2,493.1,2526.1,3263.9,240.4,75.6,21.9
0.055340,502.9,42.7,2560.8,148.7,3337.0,397.8,492.4,2531,3268.4,240,75.7,21.5
0.057340,502.8,41.4,2569.1,155.4,3342.8,409.6,492.1,2535.9,3272.6,239.5,75.7,21.7
0.059340,503.1,40.5,2574.4,154.6,3338.3,402.7,492.3,2540.7,3276.6,239,75.8,22.3
0.061340,503.6,40.5,2575.9,143.8,3329.4,381.9,492.8,2545.3,3280.2,238.5,75.8,23.1
0.063340,504.0,41.3,2575.1,126.7,3321.8,362.3,493.9,2549.8,3283.5,238.1,75.8,23.7
0.065340,504.5,42.7,2573.7,109.9,3318.0,355.5,495.4,2554,3286.3,237.6,75.8,24
0.067340,505.5,45.1,2571.3,94.7,3314.1,353.2,497.4,2557.9,3288.5,237.1,75.7,23.9
0.069340,507.2,48.5,2568.1,81.1,3307.7,345.9,499.9,2561.6,3290.2,236.6,75.6,23.5
0.071340,509.2,52.1,2565.8,70.2,3301.2,335.6,502.9,2564.8,3291.3,236.2,75.5,23
0.073340,511.5,56.2,2564.8,62.0,3294.7,321.8,506.3,2567.7,3291.8,235.7,75.3,22.4
0.075340,513.9,60.8,2563.7,57.3,3287.6,304.2,510.2,2570.2,3291.6,235.2,75.1,21.9
0.077340,516.6,66.0,2561.2,55.7,3280.0,286.3,514.5,2572.3,3290.7,234.8,74.9,21.5
0.079340,519.6,71.5,2557.7,56.3,3271.9,273.7,519.2,2573.9,3289.1,234.3,74.6,20.9
0.081340,522.9,76.3,2555.3,57.9,3264.1,270.2,524.2,2575.1,3286.8,233.9,74.4,20.4
0.083340,526.7,80.4,2555.1,60.2,3257.1,277.0,529.5,2575.8,3283.8,233.4,74.2,20
0.085340,530.9,83.6,2556.8,63.5,3252.3,290.8,535,2576,3280,233,74,19.8
0.087340,535.5,87.0,2558.9,68.2,3248.2,303.6,540.8,2575.7,3275.6,232.6,73.9,19.8
0.089340,540.6,90.6,2560.1,74.6,3240.3,307.9,546.6,2574.9,3270.4,232.1,73.8,20
0.091340,545.5,93.5,2559.2,81.9,3228.1,304.4,552.5,2573.6,3264.6,231.7,73.8,20.2
0.093340,549.9,94.9,2555.5,88.9,3215.5,301.2,558.5,2571.8,3258.2,231.3,73.8,20.5
0.095340,552.8,94.6,2550.7,92.9,3206.8,306.0,564.4,2569.4,3251.1,230.8,73.8,20.9
0.097340,555.0,93.6,2546.9,93.7,3198.4,313.8,570.2,2566.5,3243.5,230.4,73.8,21.3
0.099340,557.8,92.7,2544.7,93.6,3184.9,312.1,576,2563.1,3235.4,230,73.9,21.8
0.101340,561.7,92.2,2543.5,94.2,3171.0,299.2,581.6,2559.2,3226.8,229.6,74,22.4
0.103340,567.1,91.8,2543.7,96.8,3163.4,286.2,587,2554.7,3217.8,229.1,74,22.7
0.105340,573.7,91.3,2545.1,101.2,3165.1,281.7,592.2,2549.7,3208.4,228.7,74.1,22.8
0.107340,581.7,90.4,2545.8,104.6,3171.8,281.3,597.2,2544.2,3198.7,228.3,74.1,22.5
0.109340,590.9,89.0,2543.2,105.3,3177.9,280.4,601.9,2538.1,3188.8,227.8,74.1,22
0.111340,600.2,86.6,2536.9,104.2,3181.3,280.7,606.5,2531.4,3178.7,227.4,74.2,21.3
0.113340,610.0,82.4,2528.2,103.3,3182.7,285.1,610.8,2524.2,3168.4,226.9,74.3,20.5
0.115340,619.2,76.0,2519.7,103.2,3182.4,292.8,614.9,2516.4,3158.1,226.5,74.4,19.7
0.117340,627.8,68.0,2512.8,104.2,3179.9,299.6,618.9,2508.1,3147.7,226,74.6,18.9
0.119340,635.8,59.4,2507.1,107.1,3175.2,302.6,622.7,2499.2,3137.4,225.5,74.8,18
0.121340,642.8,51.3,2501.2,113.2,3169.0,305.0,626.4,2489.7,3127.2,225,75,17.1
0.123340,649.3,43.6,2493.8,124.7,3159.9,312.9,630,2479.6,3117.2,224.5,75.3,16.3
0.125340,654.8,36.8,2484.2,140.9,3146.0,326.5,633.6,2468.9,3107.4,224,75.7,15.7
0.127340,659.2,31.5,2472.8,158.2,3128.9,340.3,637.2,2457.7,3097.9,223.4,76,15.4
0.129340,662.7,27.9,2460.8,171.2,3112.8,349.6,640.8,2445.9,3088.6,222.9,76.4,15.3
0.131340,665.3,25.8,2449.5,176.6,3101.1,350.6,644.6,2433.5,3079.8,222.3,76.7,15.3
0.133340,667.5,25.0,2438.0,174.8,3095.3,338.8,648.6,2420.6,3071.4,221.7,76.9,15.2
0.135340,669.2,25.3,2426.7,168.1,3095.4,315.0,652.7,2407.1,3063.5,221.1,77.1,15.1
0.137340,670.4,26.6,2415.8,162.4,3098.1,293.2,657.1,2393.1,3056,220.4,77.1,14.7
0.139340,670.9,28.7,2404.3,165.4,3100.4,291.1,661.8,2378.5,3049.2,219.8,76.9,14.1
0.141340,670.6,31.9,2390.3,182.2,3100.1,315.7,666.8,2363.5,3042.9,219.1,76.7,13.6
0.143340,669.6,37.1,2368.6,211.4,3093.2,354.0,672.2,2348,3037.2,218.4,76.3,13
0.145340,668.6,45.2,2338.8,235.3,3077.6,371.1,677.9,2332.1,3032.1,217.7,75.8,12.6
0.147340,668.6,56.7,2309.2,242.7,3055.7,369.8,683.9,2315.8,3027.7,216.9,75.2,12.4
0.149340,670.7,71.7,2285.1,242.7,3029.0,376.9,690.4,2299.1,3024,216.2,74.7,12.1
0.151340,676.0,88.1,2266.1,240.3,3004.9,389.7,697.2,2282.2,3021.1,215.4,74.1,11.9
0.153340,685.8,104.2,2249.2,232.2,2992.9,391.3,704.4,2265,3018.8,214.6,73.7,11.9
0.155340,699.0,115.6,2233.9,220.9,2993.4,375.6,711.9,2247.6,3017.2,213.8,73.3,12
0.157340,712.6,120.6,2218.0,213.9,2993.5,357.1,719.7,2230.1,3016.4,213,73.1,12.4
0.159340,724.5,121.2,2199.4,216.7,2986.5,353.2,727.8,2212.5,3016.4,212.1,72.9,13.1
0.161340,734.0,120.7,2177.8,228.3,2976.1,372.1,736.1,2194.9,3017.1,211.3,72.7,13.8
0.163340,743.1,121.7,2152.3,240.9,2967.7,412.6,744.6,2177.3,3018.5,210.4,72.6,14.4
0.165340,753.4,126.0,2127.4,239.6,2964.5,457.8,753.1,2159.9,3020.6,209.6,72.4,14.6
0.167340,765.0,134.1,2107.3,221.8,2965.2,493.9,761.7,2142.7,3023.5,208.7,72.2,14.2
0.169340,775.4,144.2,2091.9,199.9,2967.3,522.3,770.3,2125.7,3027.1,207.9,72.1,13.6
0.171340,781.4,153.5,2079.5,184.8,2969.6,550.3,778.8,2109,3031.3,207,72,12.7
0.173340,782.5,160.8,2067.4,177.8,2970.7,585.1,787.1,2092.7,3036.2,206.1,71.9,11.9
0.175340,780.7,166.6,2055.8,178.9,2966.9,631.2,795.2,2076.8,3041.7,205.2,71.8,11.4
0.177340,780.1,172.9,2045.4,186.8,2955.8,695.7,803,2061.5,3047.9,204.4,71.8,11.2
0.179340,784.1,180.5,2037.3,198.5,2943.3,776.8,810.5,2046.6,3054.5,203.5,71.7,11.2
0.181340,794.1,189.5,2033.6,207.1,2949.1,853.9,817.5,2032.4,3061.8,202.6,71.6,11.2
0.183340,810.5,198.4,2033.7,205.9,2994.7,899.1,824.1,2018.8,3069.4,201.7,71.4,11.3
0.185340,830.2,201.7,2033.8,191.6,3075.0,861.5,830.2,2005.8,3077.6,200.9,71.3,11.4
0.187340,847.7,196.0,2030.2,170.1,3152.6,749.5,835.7,1993.6,3086.1,200,71.2,11.4
0.189340,859.3,186.4,2023.0,151.9,3207.3,636.7,840.7,1982.1,3094.9,199.1,71.1,11.4
0.191340,866.0,180.9,2014.7,143.4,3242.7,562.4,845.1,1971.3,3104,198.3,71,11.5
0.193340,870.8,181.2,2005.0,145.5,3265.9,524.1,848.8,1961.2,3113.3,197.4,71,11.5
0.195340,873.2,183.3,1992.8,157.7,3274.2,522.9,852,1951.9,3122.8,196.6,71,11.4
0.197340,872.0,181.8,1976.0,174.9,3265.9,548.8,854.6,1943.3,3132.3,195.7,70.9,11.3
0.199340,867.7,173.8,1955.1,189.2,3245.7,591.2,856.5,1935.4,3141.9,194.9,70.8,11
0.201340,863.1,160.5,1934.1,194.8,3222.9,641.4,857.9,1928.3,3151.5,194.1,70.7,10.7
0.203340,860.9,145.1,1915.3,191.0,3198.7,681.5,858.8,1921.8,3160.9,193.3,70.6,10.6
0.205340,861.9,133.2,1902.8,182.2,3182.3,679.8,859.3,1916,3170.2,192.5,70.5,10.7
0.207340,865.3,127.7,1897.6,175.5,3183.5,635.1,859.3,1910.9,3179.3,191.8,70.3,11.1
0.209340,868.9,127.5,1897.9,174.8,3193.6,575.3,858.9,1906.3,3188,191,70.2,11.8
0.211340,870.5,129.2,1900.0,179.1,3199.0,522.5,858.2,1902.3,3196.4,190.3,70.1,12.7
0.213340,868.7,130.4,1899.8,187.2,3195.4,481.4,857.2,1898.8,3204.4,189.6,70,13.3
0.215340,863.3,129.0,1893.2,199.2,3185.8,466.0,856.1,1895.8,3211.9,188.9,69.8,13.7
0.217340,857.3,125.6,1880.0,211.1,3175.9,470.0,854.8,1893.2,3218.9,188.2,69.7,13.7
0.219340,853.7,123.1,1866.2,215.8,3169.6,471.4,853.4,1891,3225.3,187.6,69.5,13.3
0.221340,851.8,124.3,1859.0,212.5,3169.5,473.5,852.1,1889.2,3231,186.9,69.3,12.9
0.223340,849.1,131.7,1860.7,203.4,3177.9,493.5,850.8,1887.7,3236.1,186.4,69.2,12.4
0.225340,844.4,145.0,1869.1,190.3,3195.0,529.3,849.6,1886.5,3240.4,185.8,69,11.9
0.227340,838.5,157.8,1877.5,176.0,3212.1,568.9,848.6,1885.5,3244.1,185.3,68.9,11.5
0.229340,832.9,161.5,1881.8,165.9,3219.5,618.3,847.7,1884.8,3246.9,184.8,68.8,10.9
0.231340,830.5,158.1,1886.3,161.3,3225.4,673.3,847.1,1884.3,3248.9,184.3,68.7,10.4
0.233340,831.6,154.8,1897.1,160.1,3247.0,721.3,846.7,1884,3250.2,183.8,68.6,10.1
0.235340,832.8,154.3,1914.8,160.3,3277.8,746.2,846.6,1883.9,3250.6,183.4,68.5,10
