time,f1,b1,f2,b2,f3,b3,f1p,f2p,f3p,f0,intensity,harmonicity
0.025955,394.2,112.4,2711.0,264.0,3457.6,166.2,434.4,2668.5,3476,265.2,71.7,18.4
0.027955,402.2,111.9,2701.2,265.2,3474.8,169.3,434.6,2669.1,3475.8,265.1,71.7,19.2
0.029955,409.7,111.8,2697.9,265.0,3484.4,178.1,435,2669.9,3475.6,264.9,71.7,19.9
0.031955,417.2,112.1,2700.4,260.2,3488.6,188.4,435.4,2671.2,3475.3,264.8,71.6,20.3
0.033955,423.5,111.3,2699.9,250.4,3488.3,194.9,436.1,2672.7,3475,264.6,71.6,20.7
0.035955,428.5,109.1,2689.5,232.8,3485.5,194.8,436.8,2674.6,3474.5,264.4,71.6,21.1
0.037955,432.9,106.6,2674.4,209.2,3483.1,187.8,437.7,2676.8,3474,264.2,71.5,21.4
0.039955,437.5,104.3,2663.8,187.2,3481.7,176.0,438.7,2679.3,3473.4,264,71.4,21.5
0.041955,443.0,101.3,2660.1,172.5,3478.1,161.9,439.9,2682.1,3472.8,263.8,71.3,21.7
0.043955,448.7,97.5,2660.0,164.9,3471.0,148.7,441.1,2685.2,3472.1,263.6,71.2,21.8
0.045955,454.3,93.2,2659.6,159.5,3462.9,137.4,442.5,2688.5,3471.3,263.4,71.2,21.8
0.047955,458.9,88.9,2657.9,155.3,3457.8,130.1,444,2692.1,3470.5,263.2,71.1,21.9
0.049955,462.3,84.5,2655.6,153.6,3456.2,127.9,445.6,2695.9,3469.7,263,71,21.9
0.051955,464.8,79.6,2653.5,156.1,3456.1,130.3,447.3,2699.9,3468.8,262.8,70.9,21.9
0.053955,466.4,74.7,2652.3,163.6,3456.4,137.1,449.1,2704.1,3468,262.6,70.8,21.9
0.055955,467.6,70.2,2652.5,175.5,3456.9,146.6,450.9,2708.5,3467.1,262.4,70.7,22
0.057955,468.5,67.0,2655.0,189.1,3457.4,155.6,452.9,2713,3466.2,262.2,70.7,22.2
0.059955,469.1,65.5,2660.7,202.8,3457.3,162.9,454.9,2717.6,3465.3,262,70.7,22.4
0.061955,469.4,65.0,2670.4,217.4,3456.7,170.9,457,2722.4,3464.4,261.8,70.7,22.7
0.063955,469.5,65.3,2682.4,232.5,3456.8,180.9,459.1,2727.2,3463.6,261.6,70.8,22.9
0.065955,469.6,66.1,2695.4,248.8,3458.2,191.2,461.3,2732,3462.8,261.5,70.8,23.1
0.067955,469.7,66.8,2708.0,268.1,3459.8,198.3,463.5,2736.8,3462,261.3,70.9,23.4
0.069955,469.9,66.8,2721.0,293.9,3459.7,200.2,465.8,2741.7,3461.3,261.1,71.1,23.8
0.071955,470.5,65.9,2739.6,325.1,3455.9,198.4,468.1,2746.5,3460.6,261,71.2,24
0.073955,471.9,64.3,2766.5,349.3,3450.9,197.3,470.4,2751.3,3460,260.8,71.3,23.9
0.075955,474.2,61.8,2797.7,354.5,3447.9,199.4,472.7,2755.9,3459.4,260.7,71.5,23.3
0.077955,477.1,57.9,2822.2,337.2,3447.7,204.0,475,2760.5,3458.9,260.6,71.7,22.1
0.079955,480.1,52.9,2836.2,311.0,3448.0,211.3,477.3,2765,3458.5,260.5,71.9,20.5
0.081955,482.8,48.0,2847.3,292.3,3448.8,225.0,479.6,2769.3,3458.2,260.4,72.1,19
0.083955,484.5,44.2,2859.3,286.7,3454.2,245.4,481.9,2773.4,3457.9,260.3,72.3,17.9
0.085955,485.6,41.7,2867.6,288.0,3465.0,266.2,484.2,2777.3,3457.7,260.2,72.5,17.5
0.087955,486.5,40.2,2864.8,290.1,3473.0,272.5,486.4,2781,3457.6,260.2,72.7,17.8
0.089955,487.7,39.6,2849.8,285.0,3469.4,255.8,488.6,2784.5,3457.6,260.1,72.9,18.5
0.091955,489.3,39.2,2830.1,264.4,3459.3,224.9,490.8,2787.7,3457.6,260.1,73,19.3
0.093955,491.2,38.3,2816.1,237.5,3453.0,199.6,492.9,2790.7,3457.8,260.1,73.2,20
0.095955,493.1,36.4,2809.8,218.9,3453.7,187.1,494.9,2793.4,3458,260.1,73.4,20.4
0.097955,494.8,34.0,2811.4,214.1,3461.2,187.8,496.9,2795.8,3458.2,260.1,73.6,20.6
0.099955,496.5,31.8,2819.4,212.8,3474.9,196.5,498.9,2797.8,3458.6,260.2,73.8,20.7
0.101955,498.4,30.5,2828.2,201.7,3492.5,204.1,500.7,2799.6,3459,260.2,74,20.8
0.103955,500.2,29.9,2829.6,185.1,3505.9,207.8,502.5,2801,3459.5,260.3,74.2,20.9
0.105955,501.7,29.1,2823.4,173.3,3511.1,213.6,504.3,2802.2,3460,260.4,74.4,21
0.107955,502.8,28.0,2815.0,168.9,3510.5,222.3,505.9,2802.9,3460.6,260.5,74.5,21.1
0.109955,503.7,26.7,2809.3,170.8,3507.8,228.7,507.5,2803.4,3461.2,260.6,74.6,21.2
0.111955,504.5,25.7,2805.2,181.1,3502.0,227.0,509,2803.5,3461.8,260.7,74.8,21.2
0.113955,505.5,24.9,2796.5,200.9,3488.4,215.3,510.4,2803.3,3462.5,260.8,74.9,21.2
0.115955,506.6,24.1,2780.0,218.5,3468.4,195.3,511.8,2802.7,3463.2,260.9,75,20.9
0.117955,507.9,23.5,2766.3,216.7,3451.6,176.3,513,2801.9,3463.9,261.1,75.2,20.4
0.119955,508.9,22.8,2766.9,203.1,3443.5,170.3,514.2,2800.7,3464.6,261.2,75.3,19.7
0.121955,509.9,22.1,2776.6,192.4,3443.8,177.2,515.3,2799.2,3465.3,261.4,75.5,19
0.123955,510.8,21.3,2783.0,188.5,3450.1,184.2,516.3,2797.4,3466,261.5,75.6,18.6
0.125955,512.0,20.7,2780.8,188.3,3458.1,180.6,517.2,2795.4,3466.6,261.7,75.6,18.5
0.127955,513.4,20.5,2774.3,188.5,3462.9,167.5,518,2793,3467.2,261.8,75.6,18.6
0.129955,515.0,20.7,2770.0,190.1,3461.5,152.5,518.8,2790.5,3467.8,261.9,75.6,18.9
0.131955,516.5,21.0,2769.7,198.3,3456.3,142.3,519.5,2787.7,3468.4,262.1,75.6,19.3
0.133955,517.8,21.1,2770.0,215.6,3453.3,136.3,520.1,2784.6,3468.8,262.2,75.6,19.8
0.135955,518.7,20.7,2765.4,234.1,3454.8,130.4,520.6,2781.4,3469.3,262.3,75.6,20.3
0.137955,519.6,19.9,2751.3,238.2,3458.4,122.7,521.1,2778.1,3469.6,262.4,75.6,21
0.139955,520.6,19.0,2731.1,220.3,3461.4,115.6,521.5,2774.5,3469.9,262.5,75.6,21.9
0.141955,521.5,18.0,2712.7,191.6,3463.0,111.7,521.8,2770.9,3470.1,262.6,75.7,22.6
0.143955,522.4,16.8,2701.4,170.0,3461.8,112.5,522.1,2767.2,3470.2,262.7,75.7,23.1
0.145955,523.1,15.6,2696.0,160.0,3457.0,117.8,522.3,2763.4,3470.3,262.7,75.8,23.2
0.147955,523.6,14.6,2697.5,162.1,3450.7,128.6,522.5,2759.5,3470.2,262.8,75.9,22.8
0.149955,524.0,13.6,2708.7,176.5,3449.4,147.7,522.6,2755.7,3470.1,262.8,76.1,22.2
0.151955,524.1,12.6,2731.2,204.1,3459.1,179.3,522.6,2751.9,3469.9,262.9,76.3,21.5
0.153955,524.0,11.6,2757.2,241.1,3474.1,220.0,522.7,2748.1,3469.6,262.9,76.5,21
0.155955,523.7,10.6,2775.2,290.7,3481.2,267.7,522.6,2744.3,3469.2,262.9,76.8,20.8
0.157955,523.3,9.7,2774.6,354.0,3470.2,312.5,522.6,2740.7,3468.7,262.9,77,20.7
0.159955,523.1,8.9,2755.7,410.8,3445.0,332.1,522.5,2737.2,3468.2,262.9,77.2,20.7
0.161955,523.1,8.7,2739.3,417.2,3427.7,315.7,522.3,2733.8,3467.6,262.9,77.4,20.9
0.163955,523.3,9.0,2731.1,362.2,3424.9,275.1,522.2,2730.7,3466.9,262.8,77.6,21.2
0.165955,523.7,9.6,2718.3,282.7,3431.0,225.8,522,2727.7,3466.2,262.8,77.8,21.8
0.167955,524.1,10.1,2699.9,218.9,3437.1,182.3,521.8,2725,3465.4,262.7,77.9,22.8
0.169955,524.4,10.2,2683.8,178.7,3437.4,149.5,521.5,2722.5,3464.6,262.6,77.9,24
0.171955,524.4,10.2,2676.2,158.8,3434.7,128.3,521.3,2720.2,3463.8,262.6,78,25.2
0.173955,524.4,10.2,2675.5,150.8,3434.5,115.2,521,2718.3,3462.9,262.5,78,26
0.175955,524.2,10.2,2681.7,154.2,3438.3,110.6,520.8,2716.7,3462,262.4,78,26.4
0.177955,523.9,10.2,2698.2,171.0,3445.8,116.2,520.5,2715.4,3461.1,262.3,78,26.2
0.179955,523.3,10.2,2729.9,199.6,3457.8,135.0,520.2,2714.5,3460.2,262.2,78,25.8
0.181955,522.8,10.4,2765.8,223.8,3472.9,162.5,519.9,2713.9,3459.3,262,77.9,25.3
0.183955,522.2,10.7,2782.9,234.5,3483.6,186.7,519.6,2713.7,3458.5,261.9,77.9,24.9
0.185955,521.8,10.9,2769.8,233.3,3481.4,194.0,519.3,2713.9,3457.7,261.8,77.9,24.9
0.187955,521.3,11.1,2744.3,220.3,3472.2,184.4,519,2714.5,3456.9,261.6,77.8,25
0.189955,520.9,11.2,2730.6,204.0,3466.3,173.1,518.7,2715.5,3456.2,261.5,77.7,25.4
0.191955,520.5,11.3,2735.8,199.4,3468.3,173.8,518.4,2716.8,3455.6,261.3,77.6,25.7
0.193955,520.0,11.2,2753.1,210.1,3478.2,188.9,518.1,2718.6,3455.1,261.1,77.5,25.9
0.195955,519.5,11.2,2774.0,230.0,3495.0,213.2,517.8,2720.8,3454.6,261,77.4,25.8
0.197955,518.9,11.2,2789.1,246.5,3512.4,234.1,517.4,2723.4,3454.3,260.8,77.2,25.7
0.199955,518.4,11.4,2791.1,250.9,3520.3,239.6,517.1,2726.3,3454.1,260.6,77.1,25.4
0.201955,518.0,11.6,2780.8,243.1,3514.1,229.1,516.8,2729.7,3453.9,260.4,77.1,25.1
0.203955,517.6,11.8,2766.2,230.9,3500.2,214.7,516.5,2733.4,3454,260.2,77,24.8
0.205955,517.0,11.7,2752.0,222.4,3484.9,205.7,516.2,2737.5,3454.1,260,76.9,24.5
0.207955,516.3,11.6,2739.0,217.8,3470.4,198.0,515.9,2742,3454.4,259.8,76.9,24.2
0.209955,515.6,11.5,2730.3,212.2,3457.5,184.4,515.6,2746.8,3454.8,259.6,76.9,23.9
0.211955,514.9,11.5,2732.8,204.4,3449.9,170.5,515.2,2751.8,3455.4,259.3,76.9,23.6
0.213955,514.1,11.5,2747.7,197.7,3449.8,166.6,514.9,2757.2,3456.2,259.1,77,23.3
0.215955,513.1,11.4,2768.1,195.4,3457.2,175.9,514.6,2762.9,3457,258.9,77.1,22.9
0.217955,512.0,11.1,2783.6,201.0,3465.2,191.4,514.2,2768.8,3458,258.7,77.2,22.4
0.219955,511.0,10.8,2790.4,218.4,3463.2,206.3,513.9,2774.9,3459.2,258.4,77.3,21.8
0.221955,510.2,10.4,2796.8,238.7,3448.2,220.8,513.5,2781.2,3460.5,258.2,77.4,21.3
0.223955,509.6,10.1,2814.1,243.3,3430.8,241.7,513.2,2787.6,3462,258,77.5,21
0.225955,509.2,10.0,2835.9,225.4,3424.1,268.2,512.8,2794.2,3463.5,257.8,77.5,21.1
0.227955,509.1,10.1,2848.7,194.6,3432.3,291.2,512.4,2800.9,3465.2,257.5,77.6,21.6
0.229955,509.1,10.4,2850.3,160.3,3456.5,306.1,512,2807.7,3467,257.3,77.5,22.4
0.231955,509.2,10.8,2845.2,129.7,3495.7,305.1,511.5,2814.4,3469,257.1,77.5,23.1
0.233955,509.5,11.2,2836.5,104.5,3537.0,280.0,511.1,2821.2,3471,256.9,77.4,23.7
0.235955,509.7,11.7,2826.7,87.4,3560.7,245.4,510.6,2828,3473.1,256.7,77.3,23.9
0.237955,509.7,12.1,2818.4,79.7,3558.5,222.1,510.1,2834.6,3475.2,256.5,77.1,23.9
0.239955,509.4,12.5,2812.3,82.9,3529.2,215.3,509.6,2841.2,3477.4,256.2,77,23.8
0.241955,508.7,12.7,2807.4,97.5,3484.5,216.1,509.1,2847.6,3479.7,256,76.8,23.5
0.243955,507.8,12.8,2802.9,119.5,3444.8,214.3,508.5,2853.9,3481.9,255.8,76.7,23.3
0.245955,507.0,13.1,2803.5,139.1,3429.0,213.6,507.9,2859.9,3484.2,255.6,76.5,23.2
0.247955,506.2,13.5,2813.9,147.1,3440.8,218.3,507.3,2865.7,3486.5,255.4,76.3,23.1
0.249955,505.5,14.1,2830.2,143.0,3467.5,219.1,506.7,2871.3,3488.7,255.2,76.2,23.1
0.251955,504.9,14.7,2843.9,138.4,3484.3,212.9,506.1,2876.5,3490.9,255,76,23
0.253955,504.4,15.3,2855.0,141.7,3482.5,208.6,505.4,2881.4,3493.1,254.8,75.9,22.9
0.255955,503.7,15.8,2865.8,153.4,3466.2,206.4,504.7,2885.9,3495.1,254.6,75.8,22.8
0.257955,503.1,16.3,2876.1,167.9,3446.1,199.7,504,2890.1,3497.1,254.4,75.6,22.7
0.259955,502.4,16.7,2880.5,176.9,3433.2,189.4,503.2,2893.8,3498.9,254.1,75.6,22.6
0.261955,501.7,17.0,2874.4,175.6,3431.0,182.8,502.4,2897.1,3500.6,253.9,75.5,22.4
0.263955,501.1,17.2,2860.6,165.3,3437.1,183.9,501.6,2899.9,3502.1,253.7,75.5,22.3
0.265955,500.3,17.1,2848.0,150.8,3449.2,199.1,500.8,2902.3,3503.5,253.5,75.6,22
0.267955,499.4,16.6,2846.6,143.3,3463.1,235.3,499.9,2904.2,3504.7,253.2,75.7,21.7
0.269955,498.2,15.8,2860.2,151.0,3473.0,293.4,499.1,2905.6,3505.7,253,75.8,21.3
0.271955,497.3,15.3,2883.2,168.4,3475.8,353.4,498.2,2906.4,3506.5,252.8,75.9,20.9
0.273955,496.7,15.1,2903.3,179.8,3473.8,384.3,497.3,2906.7,3507.1,252.5,76,20.7
0.275955,496.6,15.4,2903.2,174.8,3470.0,358.4,496.3,2906.5,3507.4,252.3,76.1,20.7
0.277955,496.6,16.0,2884.1,157.6,3470.8,305.6,495.4,2905.8,3507.5,252,76.1,21
0.279955,496.5,16.7,2862.7,139.0,3482.0,271.5,494.4,2904.5,3507.4,251.8,76,21.3
0.281955,496.2,17.4,2851.8,128.2,3500.5,272.6,493.4,2902.7,3507,251.5,75.9,21.7
0.283955,495.6,18.2,2852.2,123.5,3521.1,300.3,492.4,2900.4,3506.3,251.2,75.7,22.1
0.285955,494.8,19.2,2860.4,123.5,3537.0,338.6,491.4,2897.6,3505.4,251,75.5,22.4
0.287955,493.8,20.5,2872.4,130.3,3540.4,365.2,490.4,2894.2,3504.2,250.7,75.3,22.6
0.289955,492.4,22.0,2886.3,147.6,3532.6,362.1,489.4,2890.4,3502.7,250.4,75,22.8
0.291955,490.6,23.4,2898.1,170.9,3525.3,337.0,488.4,2886.1,3501,250.1,74.8,23
0.293955,488.4,24.8,2903.3,191.6,3519.8,306.7,487.4,2881.3,3499,249.8,74.5,23.1
0.295955,486.1,26.6,2899.4,201.0,3515.7,276.9,486.3,2876.1,3496.8,249.4,74.3,23.1
0.297955,484.0,28.6,2890.0,195.6,3516.4,252.2,485.3,2870.4,3494.3,249.1,74.1,23.1
0.299955,482.3,30.9,2880.3,179.5,3524.9,238.9,484.3,2864.4,3491.6,248.8,73.8,23.1
0.301955,481.3,33.0,2872.2,159.9,3536.1,236.6,483.3,2858,3488.7,248.4,73.7,23
0.303955,480.8,34.9,2863.9,141.9,3539.2,236.5,482.3,2851.3,3485.6,248,73.5,22.9
0.305955,480.4,35.9,2855.4,130.6,3526.8,231.9,481.3,2844.2,3482.2,247.6,73.4,22.7
0.307955,479.6,36.0,2848.6,127.0,3506.4,224.6,480.3,2837,3478.7,247.2,73.2,22.5
0.309955,478.5,35.5,2846.7,128.8,3491.5,224.4,479.3,2829.4,3475,246.8,73.1,22.3
0.311955,477.7,34.8,2852.9,131.5,3487.8,236.0,478.3,2821.7,3471.2,246.4,73.1,22
0.313955,477.0,34.4,2867.1,129.7,3492.9,257.5,477.4,2813.9,3467.3,245.9,73,21.7
0.315955,476.6,34.4,2884.1,122.2,3501.8,282.9,476.5,2805.9,3463.2,245.4,73,21.4
0.317955,476.1,34.6,2896.5,114.4,3505.5,301.5,475.6,2797.8,3459.1,244.9,72.9,21
0.319955,475.4,34.7,2901.3,110.7,3499.5,302.4,474.7,2789.7,3454.9,244.4,72.8,20.6
0.321955,474.2,34.3,2899.9,110.4,3494.6,284.5,473.8,2781.6,3450.6,243.9,72.8,20.1
0.323955,472.8,33.0,2894.9,113.1,3495.5,252.4,473,2773.5,3446.4,243.4,72.8,19.7
0.325955,471.7,31.0,2885.5,121.3,3491.8,210.4,472.2,2765.5,3442.1,242.9,72.8,19.3
0.327955,471.4,28.7,2870.8,137.3,3479.9,174.1,471.5,2757.7,3437.9,242.3,72.9,18.9
0.329955,471.8,25.7,2851.3,161.3,3463.1,153.6,470.7,2750,3433.8,241.7,73.1,18.4
0.331955,472.7,22.3,2831.5,187.2,3444.6,151.0,470,2742.5,3429.7,241.2,73.4,18.1
0.333955,473.8,18.5,2813.8,211.8,3425.6,163.1,469.4,2735.3,3425.8,240.6,73.8,17.8
0.335955,474.8,15.0,2795.9,238.0,3409.5,189.5,468.7,2728.3,3422,240,74.2,17.6
0.337955,475.6,12.3,2768.5,273.4,3395.3,231.9,468.1,2721.6,3418.3,239.4,74.7,17.6
0.339955,476.1,10.5,2720.6,319.6,3372.5,292.9,467.6,2715.3,3414.8,238.9,75.2,17.6
0.341955,476.1,9.4,2659.0,355.0,3335.7,356.8,467.1,2709.3,3411.5,238.3,75.6,17.7
0.343955,475.5,8.6,2603.3,363.7,3295.2,398.9,466.6,2703.8,3408.4,237.7,76,17.7
0.345955,474.2,8.0,2575.2,357.3,3280.7,418.5,466.2,2698.7,3405.6,237.2,76.3,17.6
0.347955,472.3,7.5,2582.3,351.0,3312.3,425.6,465.8,2694.1,3403,236.6,76.5,17.4
0.349955,469.7,7.4,2622.7,329.7,3378.0,369.3,465.5,2689.9,3400.6,236.1,76.5,17.2
0.351955,466.7,7.8,2666.2,278.0,3417.3,275.2,465.2,2686.3,3398.6,235.5,76.5,16.9
0.353955,463.3,8.7,2684.7,229.8,3427.6,210.0,464.9,2683.2,3396.8,235,76.2,16.5
0.355955,459.5,9.7,2668.2,208.0,3419.6,177.3,464.7,2680.6,3395.4,234.5,75.8,16.7
0.357955,455.3,10.8,2627.1,201.9,3405.8,160.9,464.5,2678.6,3394.2,234.1,75.2,21.4
0.359955,451.2,12.4,2581.9,201.8,3396.2,151.9,464.4,2677.2,3393.4,233.6,74.4,26.7
0.361955,448.1,14.5,2545.9,210.4,3391.9,150.1,464.3,2676.3,3392.9,233.2,73.3,27.9
0.363955,445.9,17.8,2515.7,233.2,3389.1,154.9,464.3,2676,3392.7,232.8,72,20
