time,f1,b1,f2,b2,f3,b3,f1p,f2p,f3p,f0,intensity,harmonicity
0.025701,494.2,21.0,2341.4,87.3,3115.6,309.2,489.4,2346.3,3146.4,236.1,75.7,6.2
0.027701,495.4,22.8,2342.4,72.2,3121.3,356.7,491.6,2345.2,3145.2,235.7,75.9,6.8
0.029701,496.7,27.1,2340.9,60.7,3129.5,388.5,495.1,2343.5,3143.1,235.2,75.8,7.7
0.031701,498.9,34.1,2338.6,52.8,3138.3,393.9,500,2341.3,3140.3,234.7,75.6,8.6
0.033701,503.1,44.3,2336.3,48.1,3144.2,377.7,506.1,2338.9,3136.7,234.2,75.1,9.6
0.035701,510.1,57.0,2334.6,46.5,3144.9,348.2,513.3,2336.4,3132.4,233.7,74.6,10.6
0.037701,519.5,69.5,2333.4,48.3,3141.3,313.9,521.5,2334.1,3127.4,233.2,74.2,11.7
0.039701,529.5,78.5,2333.1,54.3,3136.5,285.3,530.4,2332.3,3121.8,232.7,73.7,12.9
0.041701,538.4,83.3,2334.1,64.8,3132.2,269.5,539.9,2331.2,3115.7,232.1,73.4,14.2
0.043701,546.8,86.0,2336.2,78.7,3128.5,268.7,549.9,2330.8,3109.1,231.6,73.2,15.4
0.045701,556.1,88.0,2338.1,92.4,3123.7,284.3,560.1,2331.4,3102.1,231,73.1,16.5
0.047701,567.2,89.5,2339.0,102.5,3115.3,316.1,570.3,2333,3095,230.4,73.1,17.1
0.049701,579.6,89.7,2339.6,109.2,3100.9,358.7,580.3,2335.4,3087.7,229.9,73.1,17.4
0.051701,592.3,88.3,2341.6,114.9,3081.1,401.8,590,2338.7,3080.3,229.3,73.1,17.6
0.053701,604.3,85.5,2346.2,120.9,3061.2,439.5,599.2,2342.6,3073.1,228.8,73.1,17.6
0.055701,614.4,81.7,2352.3,125.7,3046.6,469.3,607.7,2346.9,3066.2,228.2,73.2,17.7
0.057701,622.1,77.8,2357.5,127.6,3039.9,482.0,615.5,2351.2,3059.5,227.7,73.3,17.9
0.059701,627.0,74.2,2359.8,126.8,3038.7,467.8,622.5,2355.4,3053.3,227.1,73.4,18.2
0.061701,629.9,70.8,2359.2,125.1,3036.3,437.8,628.5,2359,3047.5,226.6,73.6,18.6
0.063701,631.7,67.6,2357.0,124.2,3030.5,412.5,633.5,2361.9,3042.2,226.1,73.8,18.9
0.065701,633.5,64.3,2354.5,124.8,3024.2,400.6,637.6,2363.7,3037.5,225.6,73.9,19.2
0.067701,635.9,60.9,2352.1,126.9,3020.6,399.6,640.8,2364.4,3033.2,225.1,74.1,19.3
0.069701,638.8,57.7,2350.4,130.0,3021.3,399.3,643,2363.7,3029.4,224.6,74.2,19.3
0.071701,641.6,54.8,2349.7,132.8,3024.8,389.2,644.5,2361.8,3025.9,224.1,74.3,19.3
0.073701,643.6,52.4,2349.4,134.5,3028.3,371.7,645.2,2358.6,3022.6,223.6,74.3,19.2
0.075701,644.7,50.4,2348.6,135.9,3030.4,357.5,645.3,2354.3,3019.4,223.2,74.4,19.2
0.077701,645.0,48.8,2346.6,138.0,3030.7,349.8,645,2349.3,3016.2,222.7,74.5,19.3
0.079701,644.7,47.5,2344.1,141.2,3028.7,344.7,644.2,2343.7,3012.7,222.3,74.6,19.4
0.081701,644.1,46.4,2341.8,145.7,3024.2,337.7,643.3,2337.9,3008.9,221.8,74.7,19.7
0.083701,643.0,45.5,2340.0,152.0,3017.8,329.1,642.2,2332.4,3004.4,221.4,74.9,19.9
0.085701,641.7,44.8,2338.1,159.9,3010.5,320.4,641.1,2327.4,2999.3,220.9,75,20.2
0.087701,640.5,44.1,2335.8,166.8,3001.7,310.2,640.2,2323.3,2993.3,220.5,75.1,20.6
0.089701,639.8,43.1,2333.1,169.0,2990.4,297.8,639.3,2320.3,2986.3,220.1,75.3,21.1
0.091701,639.7,41.6,2330.7,166.4,2976.8,286.8,638.7,2318.5,2978.5,219.7,75.4,21.7
0.093701,640.0,39.7,2328.9,163.0,2963.0,282.4,638.4,2318,2969.6,219.2,75.5,22.2
0.095701,640.4,37.7,2327.4,162.2,2949.9,286.6,638.2,2318.8,2959.8,218.8,75.6,22.5
0.097701,640.6,35.7,2326.0,165.1,2937.6,294.8,638.3,2320.5,2949.2,218.4,75.7,22.5
0.099701,640.5,33.8,2324.2,170.2,2924.9,297.9,638.5,2322.9,2938,218,75.8,22.1
0.101701,640.3,32.2,2321.4,175.9,2911.7,290.7,638.9,2325.5,2926.2,217.6,75.9,21.5
0.103701,640.0,30.9,2317.6,181.8,2899.7,276.2,639.2,2327.7,2914.1,217.1,75.9,20.9
0.105701,639.4,30.2,2313.8,188.7,2890.8,261.9,639.4,2328.9,2902,216.7,75.9,20.5
0.107701,638.5,30.1,2311.6,197.5,2885.2,253.5,639.4,2328.6,2890.1,216.3,75.8,20.4
0.109701,637.2,30.7,2311.1,208.0,2881.5,252.7,639.2,2325.9,2878.7,215.9,75.7,20.7
0.111701,635.4,31.7,2308.9,218.9,2876.9,256.6,638.5,2320.4,2868,215.5,75.6,21.2
0.113701,633.5,33.1,2301.7,228.7,2869.8,260.1,637.4,2311.5,2858.3,215.1,75.4,21.7
0.115701,631.6,34.7,2289.3,234.8,2860.8,257.7,635.8,2298.8,2849.7,214.7,75.2,22.1
0.117701,629.8,36.3,2274.5,236.0,2853.2,247.4,633.6,2282,2842.5,214.3,74.9,22.2
0.119701,627.9,37.9,2259.3,234.8,2847.8,232.1,630.8,2261.2,2836.6,213.9,74.7,22
0.121701,625.7,39.5,2241.2,235.8,2841.2,215.5,627.5,2236.4,2832.2,213.5,74.5,21.7
0.123701,623.3,41.0,2217.5,240.5,2831.4,200.0,623.7,2207.9,2829.3,213.1,74.3,21.4
0.125701,620.7,42.3,2188.8,247.6,2820.9,187.7,619.5,2176.4,2827.7,212.8,74.1,21.1
0.127701,618.0,43.5,2157.3,256.2,2813.7,181.0,614.9,2142.5,2827.4,212.4,73.9,20.9
0.129701,615.0,44.9,2123.6,267.0,2813.8,180.4,610.2,2107.1,2828.2,212.1,73.8,20.9
0.131701,611.4,46.7,2087.4,277.7,2823.5,181.5,605.3,2071.2,2829.9,211.7,73.6,20.9
0.133701,607.3,49.0,2050.5,281.7,2837.7,176.5,600.6,2035.9,2832.2,211.4,73.5,20.8
0.135701,602.8,51.7,2018.2,280.9,2848.3,165.4,596.1,2002.3,2834.8,211.1,73.3,20.6
0.137701,597.9,55.0,1990.8,280.9,2851.7,154.0,591.9,1971.6,2837.7,210.8,73.1,20.2
0.139701,592.8,58.6,1963.7,278.7,2849.0,143.8,588.3,1944.9,2840.3,210.5,72.8,19.5
0.141701,587.5,62.5,1933.5,266.4,2844.2,133.8,585.4,1923,2842.7,210.2,72.5,18.7
0.143701,581.8,66.7,1900.1,242.5,2839.9,124.7,583.2,1906.8,2844.5,209.9,72.1,17.8
0.145701,574.4,72.5,1865.7,216.9,2836.3,119.0,581.9,1896.8,2845.7,209.7,71.7,17
0.147701,563.5,80.8,1831.4,199.3,2832.6,117.4,581.4,1893.4,2846.1,209.5,71.2,16.5
