time,f1,b1,f2,b2,f3,b3,f1p,f2p,f3p,f0,intensity,harmonicity
0.025132,613.0,87.7,2199.9,50.4,3127.0,255.6,634.3,2195.8,3059.8,219.9,76.8,21.8
0.027132,619.3,82.7,2199.8,52.9,3125.2,246.4,634.4,2195.8,3058.7,219.8,77,21.2
0.029132,625.9,77.2,2198.4,56.7,3113.2,244.0,634.7,2196,3057,219.7,77.1,20.7
0.031132,631.7,72.3,2196.6,60.5,3091.6,249.3,635,2196.1,3054.6,219.6,77.3,20.4
0.033132,636.1,68.6,2195.6,64.5,3063.0,269.0,635.5,2196.3,3051.6,219.5,77.5,20.1
0.035132,638.7,66.1,2195.7,68.6,3035.2,303.4,636.1,2196.5,3048.1,219.4,77.6,19.9
0.037132,640.8,63.4,2196.4,72.4,3010.3,344.4,636.8,2196.6,3044,219.3,77.7,19.8
0.039132,643.1,60.7,2197.2,76.1,2994.2,376.2,637.7,2196.8,3039.4,219.2,77.8,19.6
0.041132,645.4,58.4,2198.0,80.2,2991.7,390.2,638.8,2196.9,3034.4,219,77.9,19.5
0.043132,647.3,56.9,2198.1,86.0,3000.5,391.3,640,2196.9,3029,218.9,77.9,19.4
0.045132,648.8,56.3,2197.0,93.0,3007.5,388.5,641.5,2196.8,3023.4,218.7,77.8,19.4
0.047132,650.4,56.6,2195.4,100.3,3003.0,384.1,643.2,2196.6,3017.5,218.6,77.8,19.4
0.049132,652.2,57.7,2194.4,107.0,2989.9,377.1,645.1,2196.3,3011.5,218.4,77.6,19.4
0.051132,653.9,59.1,2194.1,112.7,2978.4,365.8,647.3,2195.8,3005.5,218.2,77.5,19.4
0.053132,655.7,60.8,2193.5,117.8,2974.3,351.0,649.8,2195.1,2999.4,218.1,77.3,19.5
0.055132,657.2,63.0,2191.8,121.4,2976.4,340.8,652.5,2194.3,2993.4,217.9,77.1,19.6
0.057132,658.6,66.1,2189.5,123.3,2980.2,340.3,655.5,2193.2,2987.6,217.7,76.9,19.7
0.059132,660.3,70.1,2188.7,123.6,2982.7,347.0,658.8,2192,2981.9,217.5,76.7,19.9
0.061132,662.9,74.3,2190.2,124.2,2983.3,353.3,662.3,2190.5,2976.5,217.4,76.5,20.2
0.063132,666.7,78.5,2192.7,126.9,2980.4,356.6,666.1,2188.9,2971.4,217.2,76.3,20.5
0.065132,670.7,82.1,2193.1,132.5,2972.6,362.5,670.2,2187,2966.6,217,76.1,20.7
0.067132,674.0,85.3,2189.5,141.9,2960.9,383.4,674.4,2185,2962.2,216.9,76,20.8
0.069132,676.3,88.3,2183.0,154.4,2949.2,430.6,678.9,2182.7,2958.1,216.7,75.8,20.8
0.071132,678.6,91.6,2176.5,166.8,2938.9,499.2,683.5,2180.4,2954.5,216.5,75.7,20.6
0.073132,682.4,96.1,2172.0,176.8,2929.6,564.7,688.3,2177.9,2951.3,216.4,75.5,20.4
0.075132,687.3,101.8,2170.1,182.2,2924.5,589.7,693.2,2175.3,2948.6,216.2,75.4,20.2
0.077132,693.4,108.8,2169.2,181.8,2924.5,581.1,698.2,2172.6,2946.2,216.1,75.3,20
0.079132,700.1,116.3,2167.5,173.5,2928.8,568.8,703.2,2169.9,2944.2,215.9,75.2,20
0.081132,707.1,123.4,2164.2,160.7,2934.8,565.9,708.2,2167.2,2942.7,215.8,75.1,20
0.083132,714.9,130.3,2159.3,149.3,2939.4,562.3,713.1,2164.5,2941.4,215.6,75,20.1
0.085132,722.4,135.5,2154.1,145.2,2942.1,551.8,718,2161.8,2940.5,215.5,74.9,20.2
0.087132,728.4,139.2,2150.2,149.9,2949.6,554.5,722.8,2159.2,2939.9,215.4,74.8,20.4
0.089132,731.8,141.2,2149.5,162.1,2966.2,589.6,727.4,2156.7,2939.5,215.3,74.8,20.7
0.091132,733.9,142.2,2151.7,174.1,2987.3,637.5,731.8,2154.4,2939.3,215.2,74.8,21.1
0.093132,735.9,142.7,2155.5,179.9,3002.8,673.3,736,2152.2,2939.3,215.1,74.8,21.6
0.095132,737.6,142.6,2158.5,178.4,3003.6,693.5,740,2150.1,2939.4,215,74.8,22
0.097132,739.1,142.5,2160.2,172.8,2994.9,718.5,743.7,2148.3,2939.5,214.9,74.8,22.3
0.099132,740.9,143.1,2160.9,166.2,2983.5,751.6,747.2,2146.6,2939.7,214.8,74.8,22.6
0.101132,743.4,144.4,2159.6,158.7,2969.9,767.4,750.3,2145.2,2939.8,214.7,74.8,22.8
0.103132,747.5,145.7,2155.0,149.3,2951.7,742.3,753.1,2143.9,2939.9,214.6,74.8,22.9
0.105132,752.8,145.9,2148.4,140.0,2932.0,691.6,755.7,2142.9,2939.9,214.5,74.8,23
0.107132,758.6,144.6,2142.5,133.7,2914.2,649.2,757.9,2142,2939.7,214.4,74.8,23.1
0.109132,762.6,142.7,2140.8,135.3,2906.6,648.4,759.9,2141.3,2939.4,214.4,74.7,23.2
0.111132,763.7,142.2,2143.4,144.4,2906.2,682.7,761.6,2140.7,2938.9,214.3,74.7,23.3
0.113132,763.5,142.7,2147.0,155.2,2904.8,706.1,763,2140.3,2938.3,214.2,74.6,23.3
0.115132,762.9,143.7,2147.3,160.6,2907.4,685.7,764.2,2139.9,2937.4,214.1,74.6,23.3
0.117132,762.2,144.5,2144.2,160.7,2919.2,643.6,765.2,2139.6,2936.3,214.1,74.5,23.3
0.119132,761.6,144.7,2139.7,159.4,2932.3,616.7,766,2139.4,2935,214,74.5,23.1
0.121132,762.0,144.6,2135.6,157.3,2936.8,603.0,766.7,2139.1,2933.6,213.9,74.4,22.8
0.123132,764.4,144.7,2132.7,152.9,2931.4,585.3,767.2,2138.8,2931.9,213.9,74.3,22.5
0.125132,767.6,145.0,2131.9,148.9,2922.6,571.3,767.7,2138.5,2930.1,213.8,74.2,22.3
0.127132,769.8,144.7,2132.9,149.4,2917.8,579.9,768.1,2138,2928.1,213.7,74.1,22.2
0.129132,771.3,143.9,2133.3,152.4,2916.1,595.9,768.5,2137.5,2926.1,213.7,74,22.4
0.131132,774.6,143.5,2130.6,151.5,2909.4,580.4,768.9,2136.7,2923.9,213.6,74,22.8
0.133132,779.7,143.2,2125.4,147.1,2896.9,541.6,769.3,2135.8,2921.7,213.5,73.9,23.2
0.135132,782.5,142.8,2122.1,147.6,2889.3,531.9,769.8,2134.8,2919.4,213.5,73.8,23.6
0.137132,781.7,142.2,2122.3,156.3,2892.7,566.7,770.3,2133.5,2917.2,213.4,73.7,23.9
0.139132,779.9,141.2,2123.4,166.5,2901.2,603.8,770.9,2132,2915,213.4,73.7,24.1
0.141132,779.2,140.6,2123.0,173.2,2907.8,608.3,771.6,2130.3,2912.9,213.3,73.6,24.2
0.143132,778.5,140.4,2121.8,181.1,2911.4,601.3,772.3,2128.5,2910.8,213.2,73.6,24.4
0.145132,776.4,140.0,2121.7,195.1,2910.6,617.0,773.1,2126.5,2908.9,213.2,73.6,24.4
0.147132,773.1,138.7,2123.7,215.0,2904.2,661.7,773.9,2124.3,2907.2,213.1,73.5,24.5
0.149132,770.0,136.6,2126.2,230.3,2896.0,706.1,774.7,2122,2905.6,213.1,73.5,24.4
0.151132,768.3,134.8,2126.8,232.5,2895.3,714.0,775.6,2119.6,2904.3,213,73.5,24.2
0.153132,768.1,134.0,2124.8,224.3,2902.4,682.5,776.4,2117.2,2903.1,213,73.5,24
0.155132,769.3,134.1,2120.9,214.1,2908.8,639.7,777.1,2114.8,2902.2,213,73.5,23.9
0.157132,771.8,134.7,2115.6,205.4,2912.4,597.9,777.8,2112.5,2901.5,212.9,73.5,24
0.159132,774.6,135.3,2110.1,200.5,2916.3,564.9,778.2,2110.3,2901,212.9,73.5,24.3
0.161132,776.5,135.6,2106.2,200.3,2923.8,552.3,778.5,2108.2,2900.8,212.8,73.5,24.9
0.163132,777.5,136.2,2104.4,201.0,2936.3,559.7,778.6,2106.4,2900.8,212.8,73.5,25.4
0.165132,777.7,137.3,2104.7,198.7,2950.9,578.6,778.4,2104.8,2901,212.8,73.5,25.9
0.167132,776.0,138.3,2105.9,197.0,2962.3,609.7,777.9,2103.6,2901.4,212.7,73.5,26
0.169132,771.7,138.5,2107.0,202.8,2961.9,653.1,776.9,2102.7,2902,212.7,73.4,25.6
0.171132,766.6,137.8,2107.9,214.1,2951.0,690.7,775.7,2102.3,2902.8,212.6,73.4,24.9
0.173132,763.6,137.8,2110.1,221.6,2937.6,693.8,773.9,2102.4,2903.7,212.6,73.4,24.1
0.175132,764.0,139.5,2114.1,217.9,2926.2,654.5,771.7,2102.9,2904.8,212.5,73.4,23.4
0.177132,766.2,141.8,2118.4,206.5,2913.0,601.0,769.1,2104,2906,212.5,73.4,22.9
0.179132,767.4,143.3,2121.8,197.1,2899.8,566.5,765.9,2105.7,2907.2,212.4,73.3,22.9
0.181132,765.7,144.0,2124.3,195.8,2890.6,566.7,762.3,2107.9,2908.5,212.4,73.3,23.1
0.183132,760.6,143.6,2126.9,205.6,2886.6,611.7,758.1,2110.7,2909.9,212.3,73.3,23.4
0.185132,753.7,142.0,2128.9,224.9,2884.2,691.5,753.5,2114,2911.3,212.3,73.3,23.7
0.187132,746.4,139.3,2129.0,249.1,2876.8,770.5,748.5,2117.9,2912.7,212.2,73.2,23.9
0.189132,740.1,136.7,2126.3,268.1,2867.5,791.8,743,2122.3,2914,212.1,73.2,24
0.191132,735.3,135.4,2123.7,274.5,2866.2,751.2,737.1,2127.1,2915.4,212.1,73.2,24
0.193132,731.5,135.4,2123.9,267.8,2871.5,679.3,730.9,2132.4,2916.6,212,73.2,23.9
0.195132,728.2,135.3,2126.5,254.0,2876.2,623.4,724.4,2138,2917.8,211.9,73.1,23.8
0.197132,724.1,133.7,2129.4,238.5,2881.0,604.1,717.7,2144,2919,211.8,73.1,23.6
0.199132,719.6,131.3,2131.4,221.9,2887.9,597.4,710.8,2150.2,2920,211.7,73,23.3
0.201132,714.8,129.1,2132.9,207.9,2896.1,571.3,703.8,2156.5,2921,211.6,72.9,23
0.203132,708.8,127.4,2135.6,198.0,2905.7,522.2,696.9,2162.9,2921.8,211.5,72.9,22.6
0.205132,702.0,126.0,2140.1,191.7,2914.4,470.4,690,2169.3,2922.6,211.4,72.7,22.2
0.207132,694.5,124.8,2146.6,185.7,2921.4,421.8,683.3,2175.6,2923.3,211.3,72.6,21.8
0.209132,687.4,123.6,2154.4,180.6,2926.5,382.9,676.8,2181.7,2923.9,211.2,72.4,21.3
0.211132,681.2,122.0,2162.5,179.0,2932.8,359.1,670.7,2187.6,2924.4,211.1,72.3,20.9
0.213132,675.4,119.9,2171.6,182.9,2942.8,348.2,665,2193.1,2924.9,211,72.1,20.3
0.215132,670.0,117.8,2181.4,191.6,2952.8,344.0,659.7,2198.1,2925.3,210.9,71.9,19.8
0.217132,663.6,115.1,2193.0,204.7,2958.1,340.1,655,2202.7,2925.6,210.8,71.8,19.3
0.219132,655.7,111.6,2205.9,221.4,2955.4,332.8,650.9,2206.6,2925.8,210.7,71.6,18.9
0.221132,646.8,107.3,2219.2,239.7,2947.6,319.3,647.5,2209.9,2926,210.5,71.4,18.4
0.223132,636.4,101.8,2233.2,260.7,2939.4,302.8,644.8,2212.6,2926.2,210.4,71.2,18
0.225132,625.9,95.7,2246.8,282.0,2935.0,292.1,642.8,2214.5,2926.3,210.3,70.9,17.5
0.227132,615.6,89.6,2261.2,299.3,2933.8,286.5,641.6,2215.7,2926.3,210.2,70.7,17
0.229132,606.4,85.1,2275.6,301.1,2934.3,281.1,641.2,2216,2926.3,210.1,70.3,16.3
