time,f1,b1,f2,b2,f3,b3,f1p,f2p,f3p,f0,intensity,harmonicity
0.025921,885.7,307.2,1950.9,164.5,3408.8,405.2,885.7,1940.7,3445,214.9,70,21.4
0.027921,881.5,312.8,1946.1,157.4,3423.1,406.3,886,1940.7,3440.8,215,70,21.4
0.029921,880.6,315.7,1943.5,148.4,3442.1,401.3,886.5,1940.8,3434.2,215,70,21.3
0.031921,882.8,316.0,1941.2,141.3,3451.7,398.3,887.3,1940.7,3426,215,70,21.3
0.033921,886.4,314.2,1938.1,139.4,3443.0,405.7,888.3,1940.3,3417,215.1,69.9,21.3
0.035921,890.4,311.0,1935.3,143.1,3418.3,414.8,889.5,1939.5,3408.2,215.1,69.9,21.4
0.037921,894.2,307.0,1934.3,150.1,3394.6,409.3,890.9,1938.2,3400.7,215.1,69.8,21.6
0.039921,897.6,301.7,1934.0,156.7,3384.7,386.1,892.5,1936.2,3395.3,215.1,69.8,21.8
0.041921,900.4,294.5,1931.1,158.2,3389.5,352.4,894,1933.5,3392.7,215.2,69.8,22
0.043921,902.8,286.1,1924.7,153.9,3399.8,319.4,895.6,1930.1,3393.5,215.2,69.8,22.2
0.045921,904.6,278.0,1917.3,147.4,3409.5,298.7,896.9,1926,3397.7,215.2,69.7,22.2
0.047921,904.9,273.8,1912.3,143.9,3414.3,303.7,897.9,1921.3,3405.3,215.3,69.7,22.1
0.049921,902.7,274.0,1909.1,143.6,3414.6,334.8,898.4,1916.2,3415.8,215.3,69.7,21.9
0.051921,898.1,276.1,1906.4,142.3,3416.9,373.5,898.2,1910.8,3428.6,215.3,69.7,21.7
0.053921,892.6,275.7,1904.9,137.3,3428.7,397.0,897.3,1905.5,3442.8,215.3,69.6,21.4
0.055921,886.8,271.6,1905.9,131.1,3451.7,402.2,895.4,1900.4,3457.4,215.3,69.6,21.1
0.057921,881.5,266.4,1908.6,129.1,3477.6,394.7,892.5,1895.7,3471.3,215.3,69.6,20.6
0.059921,876.2,262.7,1909.7,133.6,3496.0,388.9,888.6,1891.8,3483.7,215.3,69.6,20.1
0.061921,872.3,260.2,1906.5,141.7,3498.6,395.2,883.7,1888.9,3493.7,215.3,69.6,19.6
0.063921,870.9,255.6,1900.3,146.3,3492.6,410.3,878,1886.9,3500.9,215.3,69.6,19.3
0.065921,871.9,245.6,1893.8,145.0,3489.1,434.8,871.5,1886.1,3504.8,215.2,69.6,19.4
0.067921,872.1,232.5,1888.3,142.0,3492.4,481.0,864.6,1886.5,3505.6,215.2,69.6,20
0.069921,867.6,221.8,1882.3,144.0,3496.6,571.3,857.4,1887.9,3503.6,215.2,69.6,20.7
0.071921,858.8,217.2,1876.3,152.3,3491.1,681.0,850.2,1890.3,3499.3,215.1,69.6,21.4
0.073921,849.8,216.4,1873.2,162.0,3492.6,748.2,843.2,1893.6,3493.4,215.1,69.6,21.9
0.075921,842.9,216.3,1875.4,169.0,3511.3,746.5,836.8,1897.6,3486.9,215,69.5,21.8
0.077921,837.9,216.5,1882.9,173.2,3521.0,698.0,831.1,1902,3480.7,214.9,69.5,21.2
0.079921,831.5,218.0,1894.4,178.9,3504.3,653.2,826.1,1906.9,3475.5,214.8,69.4,20.3
0.081921,823.9,220.6,1908.0,187.9,3469.3,628.0,822.1,1911.9,3472.1,214.7,69.4,19.4
0.083921,816.8,223.3,1922.3,200.4,3443.3,613.6,818.9,1916.9,3471,214.7,69.3,18.8
0.085921,811.1,224.9,1937.0,216.6,3441.4,603.2,816.6,1922,3472.3,214.5,69.2,18.6
0.087921,807.8,222.1,1947.4,229.8,3458.6,595.0,814.8,1927.1,3476.1,214.4,69.2,18.8
0.089921,806.3,213.4,1951.7,232.9,3485.7,585.1,813.4,1932.1,3482.1,214.3,69.1,19.3
0.091921,806.3,201.2,1952.6,222.7,3512.6,568.6,812.1,1937.3,3489.7,214.2,69.1,19.8
0.093921,806.4,189.8,1954.4,207.0,3530.1,548.2,810.6,1942.5,3498.1,214.1,69,20.2
0.095921,805.4,180.7,1955.9,192.3,3535.7,537.5,808.7,1948,3506.6,213.9,69,20.3
0.097921,802.9,174.8,1954.7,182.6,3525.9,553.3,806.1,1953.8,3514.4,213.8,69,20.3
0.099921,798.9,170.9,1951.8,179.8,3494.9,598.7,802.6,1960,3520.7,213.7,68.9,20.1
0.101921,794.2,168.3,1952.0,186.4,3452.2,644.3,798.3,1966.5,3524.8,213.5,68.9,19.9
0.103921,789.9,166.0,1958.0,199.5,3433.4,664.6,792.9,1973.4,3526.3,213.4,68.8,19.7
0.105921,786.9,162.4,1968.8,210.0,3456.4,673.5,786.7,1980.6,3525.2,213.2,68.7,19.5
0.107921,785.9,156.7,1978.5,206.1,3510.3,675.7,779.8,1988,3521.4,213.1,68.6,19.3
0.109921,785.9,148.4,1985.5,190.2,3581.0,659.6,772.5,1995.3,3515.5,212.9,68.5,19
0.111921,784.7,139.5,1992.6,179.8,3636.2,618.6,765.1,2002.4,3507.9,212.8,68.3,18.8
0.113921,780.0,134.1,2004.0,191.3,3642.4,585.4,757.9,2009,3499.5,212.6,68.2,18.5
0.115921,770.7,135.2,2021.8,232.0,3598.4,576.0,751.4,2014.8,3491,212.5,68,18.3
0.117921,757.6,142.9,2037.3,281.8,3528.0,569.9,745.9,2019.6,3483.3,212.4,67.8,18.2
0.119921,739.2,154.1,2040.3,311.3,3447.8,545.6,741.7,2023.2,3477.2,212.2,67.5,18.1
0.121921,717.4,162.3,2031.4,306.7,3371.6,499.1,739.1,2025.5,3473.3,212.1,67.3,17.9
0.123921,695.7,164.9,2018.4,278.0,3311.3,447.8,738.2,2026.2,3472,212,67.1,17.6
