time,f1,b1,f2,b2,f3,b3,f1p,f2p,f3p,f0,intensity,harmonicity
0.025930,487.3,29.7,2626.3,113.5,3541.8,196.3,480.2,2676.7,3507.9,239.6,74.9,15.7
0.027930,487.2,28.7,2635.1,109.9,3540.7,178.0,480.3,2676.6,3507.5,239.5,75.1,18
0.029930,487.0,28.7,2643.5,108.7,3540.0,166.0,480.4,2676.3,3506.8,239.4,75.3,20.2
0.031930,486.8,29.0,2650.7,109.5,3541.1,156.3,480.5,2676,3505.9,239.4,75.4,22.1
0.033930,486.6,29.2,2656.6,111.8,3543.1,146.7,480.7,2675.6,3504.7,239.3,75.6,23.6
0.035930,486.3,29.0,2662.1,113.8,3541.8,140.1,480.9,2675.1,3503.3,239.2,75.8,24.7
0.037930,486.1,28.6,2666.5,112.1,3535.0,140.3,481.1,2674.5,3501.7,239.1,76,25.1
0.039930,485.9,28.2,2668.2,105.6,3522.5,148.5,481.4,2673.9,3499.8,239,76.2,25
0.041930,485.8,27.8,2666.8,99.5,3506.6,166.9,481.7,2673.2,3497.8,238.8,76.3,24.6
0.043930,485.5,27.2,2665.4,100.0,3491.3,201.1,482,2672.6,3495.6,238.7,76.5,24.1
0.045930,484.8,26.3,2665.9,109.1,3482.4,251.8,482.3,2671.9,3493.3,238.6,76.6,23.7
0.047930,484.0,25.7,2667.8,121.9,3483.4,303.1,482.6,2671.2,3490.9,238.4,76.8,23.5
0.049930,483.3,25.6,2668.7,130.7,3486.5,337.8,482.9,2670.6,3488.4,238.3,76.8,23.3
0.051930,482.5,26.1,2668.3,130.2,3480.9,355.0,483.3,2670.1,3485.9,238.2,76.9,23.1
0.053930,481.7,26.5,2668.3,124.0,3464.1,374.4,483.6,2669.6,3483.3,238,77,23
0.055930,480.9,26.5,2668.9,117.2,3439.5,404.0,483.9,2669.2,3480.7,237.9,77,23.1
0.057930,480.3,26.3,2669.4,113.2,3417.4,432.1,484.1,2668.9,3478.2,237.7,77.1,23.3
0.059930,480.0,26.1,2670.5,112.7,3405.2,443.1,484.4,2668.7,3475.7,237.6,77.1,23.9
0.061930,479.8,26.4,2673.6,116.3,3401.1,429.0,484.6,2668.7,3473.4,237.5,77.1,24.4
0.063930,479.6,27.2,2678.6,122.6,3398.8,399.6,484.8,2668.8,3471.1,237.3,77.2,24.8
0.065930,479.3,28.3,2682.9,127.6,3398.4,370.6,484.9,2669.1,3469,237.2,77.2,24.7
0.067930,478.9,29.6,2684.3,128.7,3402.8,356.6,485,2669.6,3467,237,77.2,24
0.069930,478.7,31.3,2685.1,126.2,3414.1,357.7,485,2670.3,3465.3,236.9,77.2,22.9
0.071930,478.7,33.4,2688.3,119.3,3430.1,351.6,485,2671.2,3463.7,236.8,77.2,21.5
0.073930,478.6,35.6,2694.5,109.9,3446.1,327.0,485,2672.4,3462.4,236.6,77.2,20.3
0.075930,478.1,36.3,2702.8,103.4,3460.0,301.2,484.8,2673.7,3461.3,236.5,77.2,19.6
0.077930,477.7,35.3,2711.4,103.8,3470.6,288.7,484.7,2675.3,3460.5,236.4,77.3,19.4
0.079930,477.6,33.5,2719.1,112.3,3479.4,290.5,484.5,2677,3460,236.3,77.3,19.4
0.081930,477.9,32.1,2723.0,124.1,3490.3,296.0,484.2,2679,3459.7,236.2,77.4,19.7
0.083930,478.3,31.3,2722.4,129.8,3506.1,291.1,483.8,2681.2,3459.7,236.1,77.4,20.2
0.085930,478.4,31.0,2719.7,129.4,3518.0,280.1,483.5,2683.6,3460,236,77.5,20.8
0.087930,478.5,30.9,2716.3,128.9,3517.7,273.7,483,2686.2,3460.5,235.9,77.6,21.7
0.089930,478.5,30.9,2712.8,130.8,3508.8,273.2,482.5,2688.9,3461.3,235.8,77.6,23
0.091930,478.5,30.8,2711.8,134.9,3503.0,277.3,482,2691.8,3462.4,235.7,77.6,24.4
0.093930,478.5,30.6,2716.7,139.2,3505.8,287.1,481.5,2694.9,3463.7,235.6,77.6,25.6
0.095930,478.5,30.4,2727.5,142.4,3507.2,305.4,480.9,2698,3465.3,235.5,77.6,26.3
0.097930,478.5,30.4,2737.5,144.7,3496.7,326.1,480.3,2701.2,3467,235.4,77.6,26.5
0.099930,478.5,30.4,2741.0,147.1,3475.8,336.3,479.6,2704.6,3469,235.4,77.6,26.2
0.101930,478.4,30.3,2737.2,148.8,3460.1,326.7,479,2707.9,3471.1,235.3,77.6,25.7
0.103930,478.3,30.4,2730.3,147.9,3458.0,305.7,478.4,2711.2,3473.4,235.2,77.6,25.2
0.105930,478.3,30.8,2723.0,144.2,3461.7,284.0,477.7,2714.6,3475.8,235.1,77.6,24.9
0.107930,478.4,31.3,2716.4,138.9,3460.5,269.9,477.1,2717.9,3478.3,235.1,77.6,24.9
0.109930,478.4,31.4,2710.6,135.0,3452.4,271.2,476.5,2721.1,3480.8,235,77.6,24.9
0.111930,478.2,31.0,2707.3,136.8,3449.0,293.4,475.9,2724.2,3483.4,234.9,77.6,25
0.113930,477.9,30.4,2705.3,142.9,3464.7,326.4,475.4,2727.1,3486,234.9,77.6,25.2
0.115930,477.7,30.6,2700.9,147.0,3492.1,345.9,474.8,2729.9,3488.5,234.8,77.6,25.3
0.117930,477.7,31.4,2694.7,146.4,3514.8,349.6,474.4,2732.5,3491,234.8,77.6,25.3
0.119930,477.8,32.4,2691.9,140.8,3534.0,345.1,474,2734.9,3493.3,234.7,77.5,25.4
0.121930,478.1,33.1,2694.9,132.1,3553.5,328.4,473.6,2737,3495.6,234.7,77.5,25.5
0.123930,478.5,33.6,2700.0,125.0,3567.1,306.5,473.4,2738.9,3497.7,234.6,77.5,25.5
0.125930,479.0,33.8,2704.2,123.2,3563.1,296.0,473.2,2740.4,3499.6,234.6,77.5,25.6
0.127930,479.5,34.2,2706.5,127.3,3537.7,298.5,473,2741.7,3501.2,234.5,77.5,25.7
0.129930,480.0,34.7,2707.7,136.6,3500.0,298.6,473,2742.6,3502.7,234.5,77.5,25.8
0.131930,480.5,35.3,2708.7,146.8,3475.1,288.0,473,2743.1,3503.9,234.4,77.5,26
0.133930,480.9,35.6,2710.4,152.4,3470.4,279.1,473.2,2743.4,3504.8,234.4,77.5,26.1
0.135930,481.1,35.7,2712.4,151.4,3475.9,281.3,473.4,2743.2,3505.4,234.4,77.5,26.3
0.137930,481.1,35.4,2713.8,147.0,3486.1,290.4,473.7,2742.7,3505.7,234.4,77.5,26.4
0.139930,481.0,35.1,2713.7,142.8,3499.4,294.1,474,2741.9,3505.6,234.4,77.5,26.5
0.141930,480.9,34.8,2712.6,141.8,3508.4,282.0,474.5,2740.7,3505.3,234.3,77.5,26.7
0.143930,480.9,34.7,2713.1,145.1,3506.4,261.0,475.1,2739.1,3504.5,234.3,77.5,26.8
0.145930,481.0,34.6,2715.5,149.9,3492.5,242.4,475.7,2737.2,3503.5,234.3,77.5,26.9
0.147930,481.1,34.7,2717.3,151.9,3472.7,230.3,476.4,2734.9,3502.1,234.3,77.5,26.9
0.149930,481.2,34.8,2716.3,150.1,3453.8,223.7,477.2,2732.4,3500.4,234.3,77.5,26.9
0.151930,481.3,35.0,2713.2,146.6,3444.2,224.0,478,2729.5,3498.3,234.3,77.5,26.8
0.153930,481.3,35.0,2711.0,143.1,3446.4,231.2,478.9,2726.4,3495.9,234.3,77.5,26.8
0.155930,481.3,34.8,2711.9,139.3,3453.2,242.0,479.8,2723.1,3493.3,234.3,77.5,26.8
0.157930,481.2,34.4,2715.5,137.0,3455.1,251.9,480.8,2719.5,3490.3,234.4,77.6,26.8
0.159930,480.9,33.7,2719.9,138.5,3451.9,258.5,481.8,2715.8,3487.1,234.4,77.6,26.8
0.161930,480.7,33.2,2722.0,141.8,3449.5,260.8,482.8,2711.9,3483.6,234.4,77.6,26.8
0.163930,480.7,33.5,2720.0,141.6,3450.7,260.8,483.8,2707.9,3480,234.4,77.6,26.8
0.165930,481.3,34.5,2713.7,135.9,3454.0,260.3,484.9,2703.9,3476.1,234.4,77.6,26.8
0.167930,482.2,35.9,2705.5,128.3,3455.9,258.6,485.9,2699.8,3472.1,234.4,77.6,26.6
0.169930,483.0,37.0,2697.8,124.0,3455.4,254.8,486.9,2695.7,3468,234.4,77.6,26.4
0.171930,483.5,37.4,2693.5,125.4,3455.6,249.6,487.9,2691.7,3463.8,234.4,77.6,26.2
0.173930,483.7,37.2,2693.8,130.7,3460.9,244.8,488.8,2687.7,3459.5,234.5,77.6,26.1
0.175930,483.7,36.8,2698.0,138.1,3471.8,242.2,489.7,2683.9,3455.2,234.5,77.5,26
0.177930,483.7,36.3,2704.0,147.0,3484.7,242.7,490.5,2680.2,3450.9,234.5,77.5,26.2
0.179930,483.6,35.7,2709.8,158.6,3494.7,246.1,491.2,2676.8,3446.7,234.5,77.5,26.5
0.181930,483.5,35.3,2713.0,170.5,3495.3,251.6,491.9,2673.5,3442.5,234.5,77.5,26.9
0.183930,483.5,35.5,2712.0,176.5,3484.3,257.0,492.4,2670.5,3438.5,234.5,77.5,27.2
0.185930,483.9,36.5,2708.0,174.2,3466.3,261.4,492.9,2667.8,3434.6,234.5,77.5,27.5
0.187930,484.4,37.6,2704.6,167.7,3450.4,265.3,493.3,2665.4,3430.9,234.5,77.4,27.7
0.189930,484.9,38.6,2703.2,158.9,3439.8,261.9,493.6,2663.4,3427.3,234.5,77.4,27.9
0.191930,485.3,39.5,2702.6,151.1,3434.6,243.8,493.8,2661.7,3424,234.5,77.4,28
0.193930,485.8,40.6,2700.5,148.2,3433.2,216.3,493.8,2660.3,3420.9,234.5,77.3,28.1
0.195930,486.2,41.5,2696.1,152.0,3433.6,191.9,493.8,2659.3,3418.1,234.5,77.3,28.1
0.197930,486.4,42.1,2691.2,159.0,3434.6,180.0,493.6,2658.8,3415.6,234.5,77.3,27.8
0.199930,486.5,42.2,2689.2,163.3,3435.9,182.2,493.4,2658.5,3413.4,234.4,77.2,27.4
0.201930,486.5,42.1,2692.0,161.8,3436.2,194.3,493,2658.7,3411.5,234.4,77.2,27
0.203930,487.0,42.7,2696.6,156.7,3432.6,209.3,492.6,2659.2,3409.9,234.4,77.2,26.6
0.205930,488.0,43.8,2701.0,153.0,3427.5,222.9,492,2660.1,3408.5,234.4,77.1,26.2
0.207930,488.7,44.5,2704.6,154.1,3427.5,234.1,491.4,2661.4,3407.5,234.4,77.1,26
0.209930,489.0,44.7,2704.7,158.5,3430.7,241.8,490.7,2662.9,3406.8,234.3,77,25.8
0.211930,489.2,44.9,2699.1,164.0,3430.4,244.4,489.9,2664.7,3406.4,234.3,77,25.7
0.213930,489.5,45.6,2688.4,168.6,3423.2,241.4,489.1,2666.8,3406.2,234.3,77,25.7
0.215930,490.4,47.0,2675.1,169.2,3410.7,231.9,488.2,2669.1,3406.3,234.2,76.9,25.7
0.217930,491.7,48.6,2663.6,163.1,3398.8,219.6,487.3,2671.6,3406.7,234.2,76.9,25.9
0.219930,492.9,49.9,2657.8,150.2,3393.4,211.4,486.5,2674.2,3407.2,234.1,76.8,26.2
0.221930,493.4,50.5,2657.8,135.3,3396.8,211.7,485.6,2676.8,3407.9,234.1,76.8,26.5
0.223930,493.3,50.5,2658.2,123.4,3405.0,217.2,484.7,2679.6,3408.8,234,76.8,26.8
0.225930,493.0,50.2,2655.6,116.5,3412.4,225.3,483.9,2682.2,3409.8,234,76.8,27
0.227930,492.9,49.9,2650.1,114.1,3413.6,233.3,483.1,2684.9,3410.8,233.9,76.7,26.8
0.229930,493.0,49.9,2644.3,115.7,3406.5,239.1,482.4,2687.3,3411.9,233.9,76.7,26.6
0.231930,493.1,50.2,2642.0,121.8,3394.1,241.2,481.8,2689.6,3413,233.8,76.7,26.2
0.233930,493.1,50.4,2643.9,130.3,3383.2,240.2,481.3,2691.6,3414,233.7,76.7,25.9
0.235930,492.8,50.4,2645.5,134.9,3378.1,235.2,480.9,2693.4,3415,233.6,76.6,25.8
0.237930,492.6,50.5,2643.3,131.8,3378.7,224.9,480.7,2694.7,3415.8,233.6,76.6,25.8
0.239930,492.7,50.8,2639.9,125.1,3384.1,211.3,480.6,2695.7,3416.5,233.5,76.5,25.9
0.241930,492.7,51.1,2639.2,121.9,3392.2,201.8,480.8,2696.1,3416.9,233.4,76.5,26.1
0.243930,492.5,51.1,2642.1,124.7,3400.7,201.7,481.1,2696,3417.1,233.3,76.4,26.2
0.245930,492.4,51.2,2646.2,131.0,3407.1,210.6,481.6,2695.4,3416.9,233.2,76.3,26.3
0.247930,492.6,51.6,2647.2,137.2,3408.4,221.5,482.4,2694.1,3416.5,233.1,76.3,26.2
0.249930,493.2,52.5,2642.6,142.5,3403.0,226.3,483.4,2692.1,3415.6,233,76.2,26
0.251930,494.0,53.8,2634.3,146.1,3393.9,220.7,484.6,2689.4,3414.4,232.9,76.1,25.9
0.253930,494.7,55.2,2627.7,148.0,3387.3,212.3,486.2,2686,3412.7,232.8,76.1,25.7
0.255930,495.3,56.5,2625.5,148.5,3385.0,212.0,487.9,2681.8,3410.6,232.7,76,25.6
0.257930,495.5,57.3,2625.9,148.4,3384.7,223.9,490,2676.8,3408,232.5,75.9,25.6
0.259930,495.4,57.8,2626.4,148.7,3383.4,248.3,492.3,2670.9,3404.8,232.4,75.8,25.7
0.261930,495.2,58.1,2626.5,149.7,3378.4,272.4,494.9,2664.3,3401.1,232.3,75.8,25.8
0.263930,495.1,58.7,2626.7,150.4,3371.5,275.5,497.8,2656.8,3396.9,232.1,75.7,25.8
0.265930,495.2,59.7,2627.8,150.4,3367.4,256.8,500.9,2648.5,3392.2,232,75.6,25.7
0.267930,495.2,60.5,2629.1,152.0,3368.5,235.2,504.3,2639.4,3386.9,231.8,75.6,25.4
0.269930,494.9,60.8,2629.0,158.1,3374.4,222.2,508,2629.4,3381.1,231.7,75.5,24.9
0.271930,494.3,60.5,2625.8,165.6,3382.7,220.2,511.9,2618.7,3374.7,231.5,75.4,24.4
0.273930,494.3,60.7,2619.4,165.3,3388.1,221.8,516.1,2607.2,3367.9,231.3,75.3,23.8
0.275930,495.4,62.1,2611.2,153.3,3386.2,221.2,520.5,2595,3360.5,231.1,75.2,23.2
0.277930,497.5,64.8,2602.0,137.8,3376.7,218.9,525.1,2582.1,3352.6,230.9,75.1,22.7
0.279930,501.3,68.7,2590.9,127.0,3361.2,218.4,530,2568.6,3344.3,230.7,74.9,22.1
0.281930,507.3,74.2,2579.9,125.4,3342.5,222.1,535,2554.6,3335.6,230.5,74.7,21.5
0.283930,515.7,81.5,2571.5,131.7,3321.5,228.7,540.1,2540,3326.5,230.3,74.5,21
0.285930,526.4,90.7,2566.7,140.5,3302.1,233.8,545.4,2525,3317.1,230,74.2,20.6
0.287930,538.0,100.0,2563.8,146.9,3293.6,234.7,550.8,2509.6,3307.4,229.8,74,20.2
0.289930,549.7,107.6,2560.1,150.7,3300.4,232.7,556.3,2493.9,3297.4,229.5,73.7,19.9
0.291930,559.9,112.1,2554.3,153.2,3316.3,229.9,561.8,2477.9,3287.3,229.2,73.4,19.6
0.293930,568.5,114.5,2547.3,153.8,3330.1,226.8,567.4,2461.9,3277,228.9,73.2,19.4
0.295930,576.6,116.0,2540.9,151.4,3336.0,223.2,572.9,2445.8,3266.7,228.6,73.1,19.3
0.297930,584.4,116.4,2535.8,148.1,3333.5,219.3,578.5,2429.7,3256.3,228.3,72.9,19.2
0.299930,592.6,115.4,2530.5,147.0,3323.8,216.5,584,2413.8,3246,228,72.8,19.3
0.301930,600.5,112.6,2523.7,150.9,3309.2,217.6,589.4,2398,3235.7,227.6,72.8,19.4
0.303930,607.5,108.2,2515.0,161.4,3291.9,225.0,594.6,2382.6,3225.7,227.3,72.7,19.4
0.305930,613.9,102.3,2505.8,176.5,3274.2,239.5,599.8,2367.6,3215.9,226.9,72.7,19.4
0.307930,620.1,96.2,2498.0,190.2,3258.7,259.6,604.7,2353.1,3206.3,226.5,72.7,19.2
0.309930,626.7,89.8,2491.6,201.4,3243.4,286.2,609.5,2339.1,3197.2,226.1,72.7,19
0.311930,632.8,83.8,2483.0,214.6,3224.9,316.0,614,2325.8,3188.4,225.8,72.8,18.7
0.313930,637.7,78.3,2464.2,235.5,3198.5,337.4,618.3,2313.2,3180.1,225.4,72.9,18.4
0.315930,641.1,73.0,2427.6,263.3,3167.6,339.1,622.3,2301.4,3172.3,225,73,18.2
0.317930,642.6,67.6,2377.5,292.1,3145.1,329.5,626,2290.6,3165.1,224.6,73,17.9
0.319930,642.5,61.7,2319.2,322.0,3135.2,324.7,629.3,2280.6,3158.5,224.2,73.1,17.7
0.321930,641.5,56.7,2261.4,344.7,3134.0,327.6,632.4,2271.7,3152.6,223.8,73.1,17.4
0.323930,640.4,54.2,2210.0,349.5,3133.8,330.4,635,2263.9,3147.4,223.4,73.1,17.1
0.325930,638.9,54.8,2165.8,341.4,3128.8,328.8,637.3,2257.2,3142.9,223,73.1,16.8
0.327930,636.9,57.9,2120.1,333.4,3114.5,321.7,639.2,2251.6,3139.2,222.6,73,16.6
0.329930,633.5,62.9,2054.4,322.3,3088.2,302.6,640.6,2247.3,3136.3,222.3,72.8,16.5
0.331930,628.5,68.9,1973.7,286.2,3057.0,267.1,641.7,2244.1,3134.3,221.9,72.5,16.3
0.333930,622.1,76.0,1909.4,230.1,3031.1,227.5,642.3,2242.2,3133,221.6,72.2,15.9
0.335930,614.3,85.6,1873.4,185.6,3013.7,196.5,642.5,2241.6,3132.6,221.3,71.8,15.2
