time,f1,b1,f2,b2,f3,b3,f1p,f2p,f3p,f0,intensity,harmonicity
0.025209,496.6,56.4,2241.6,119.7,3292.9,226.3,504,2338.3,3264.4,237.6,76.7,19.9
0.027209,496.7,57.3,2273.8,151.4,3296.3,217.2,504.2,2339.6,3265,237.6,76.7,20.7
0.029209,495.6,56.7,2312.7,167.6,3298.1,209.3,504.6,2341.7,3266.1,237.5,76.8,21.6
0.031209,494.9,55.8,2339.0,157.4,3295.7,213.6,505.1,2344.5,3267.6,237.5,76.8,22.5
0.033209,495.3,55.7,2351.0,136.9,3289.5,227.6,505.8,2348.2,3269.5,237.4,76.9,23.4
0.035209,497.4,57.1,2356.7,117.8,3276.5,244.1,506.6,2352.7,3271.8,237.3,76.9,24.2
0.037209,501.2,59.8,2362.4,103.0,3259.0,245.8,507.5,2357.8,3274.5,237.3,77,24.8
0.039209,505.8,62.5,2369.6,95.6,3249.8,229.3,508.6,2363.7,3277.5,237.2,77,25.3
0.041209,510.2,64.9,2377.8,95.1,3250.2,210.8,509.8,2370.2,3280.7,237.2,77,25.7
0.043209,514.2,67.3,2385.7,97.5,3253.7,198.0,511.1,2377.3,3284.2,237.1,76.9,25.9
0.045209,518.0,69.8,2392.3,99.0,3257.1,191.3,512.5,2384.9,3288,237,76.9,26
0.047209,521.3,72.6,2399.1,100.7,3261.5,191.7,514,2393.1,3291.9,237,76.8,26.1
0.049209,523.1,75.0,2408.3,107.4,3269.8,203.4,515.7,2401.6,3295.9,236.9,76.7,26
0.051209,523.0,76.3,2421.2,122.0,3283.2,228.2,517.3,2410.6,3299.9,236.8,76.7,25.9
0.053209,522.2,76.3,2437.0,141.0,3298.5,263.1,519.1,2419.8,3304.1,236.8,76.6,25.6
0.055209,522.5,76.7,2452.5,154.3,3307.4,295.2,520.9,2429.3,3308.1,236.7,76.5,25.3
0.057209,524.5,78.8,2466.2,155.6,3304.7,315.5,522.8,2439,3312.2,236.6,76.5,25.1
0.059209,527.9,82.4,2476.1,147.2,3293.6,317.7,524.7,2448.8,3316.1,236.6,76.4,24.9
0.061209,532.2,87.0,2483.0,137.6,3285.4,308.4,526.7,2458.6,3319.8,236.5,76.4,24.8
0.063209,536.5,91.2,2488.5,132.9,3287.2,301.7,528.7,2468.5,3323.4,236.4,76.4,24.7
0.065209,539.6,94.1,2493.9,133.9,3297.8,306.7,530.7,2478.2,3326.6,236.3,76.4,24.7
0.067209,541.7,96.2,2501.3,136.1,3313.9,321.7,532.7,2487.8,3329.7,236.2,76.3,24.6
0.069209,543.4,98.2,2511.2,133.6,3330.5,334.8,534.7,2497.2,3332.3,236.2,76.3,24.7
0.071209,545.3,100.4,2522.6,125.5,3346.8,330.3,536.7,2506.3,3334.7,236.1,76.3,24.8
0.073209,547.4,102.9,2532.7,114.7,3360.2,308.0,538.7,2515.1,3336.6,235.9,76.2,24.9
0.075209,549.4,105.3,2539.3,104.9,3367.9,285.6,540.7,2523.5,3338.2,235.8,76.1,25
0.077209,551.1,107.2,2543.6,98.2,3373.6,271.1,542.6,2531.6,3339.3,235.7,76.1,25.1
0.079209,551.8,107.7,2547.6,96.1,3380.8,264.3,544.5,2539.1,3340,235.6,76,25.1
0.081209,551.5,106.7,2553.2,97.6,3386.9,260.8,546.4,2546.2,3340.2,235.4,76,25
0.083209,550.6,105.0,2559.8,99.4,3385.7,259.5,548.3,2552.7,3340,235.3,75.9,24.9
0.085209,549.8,103.6,2565.0,98.4,3375.9,261.0,550.2,2558.7,3339.3,235.1,75.9,24.8
0.087209,549.3,102.7,2567.9,96.3,3360.8,268.4,552,2564.1,3338.2,235,75.8,24.6
0.089209,548.8,101.4,2569.1,96.9,3348.1,285.5,553.7,2568.9,3336.6,234.8,75.8,24.5
0.091209,547.9,99.1,2569.4,101.4,3344.4,312.3,555.5,2573.1,3334.6,234.6,75.8,24.4
0.093209,547.4,97.2,2569.3,105.7,3346.8,339.5,557.2,2576.7,3332.1,234.4,75.7,24.3
0.095209,548.6,97.6,2568.5,103.8,3342.1,352.1,558.9,2579.7,3329.3,234.2,75.7,24.3
0.097209,551.5,100.6,2567.5,94.6,3324.4,344.6,560.5,2582,3326.1,233.9,75.7,24.2
0.099209,555.0,104.3,2567.1,83.3,3304.9,324.2,562.2,2583.7,3322.6,233.7,75.7,24.1
0.101209,557.9,106.6,2567.5,74.4,3296.6,303.9,563.8,2584.8,3318.8,233.5,75.7,24.1
0.103209,559.5,107.2,2567.6,69.0,3303.6,290.1,565.4,2585.3,3314.6,233.2,75.6,24.1
0.105209,560.5,106.5,2566.7,66.6,3318.2,283.4,567,2585.3,3310.3,232.9,75.6,24
0.107209,561.7,105.3,2564.7,65.6,3328.9,282.2,568.7,2584.7,3305.7,232.6,75.6,23.9
0.109209,563.5,104.3,2562.7,65.0,3326.5,285.0,570.3,2583.5,3300.9,232.3,75.6,23.6
0.111209,565.8,103.4,2561.1,64.3,3312.3,284.5,572,2581.9,3296,232,75.6,23.1
0.113209,568.1,102.8,2559.8,63.9,3296.5,272.9,573.7,2579.8,3291.1,231.7,75.6,22.5
0.115209,570.4,102.3,2558.9,64.2,3287.6,255.6,575.4,2577.3,3286,231.4,75.6,22
0.117209,573.0,102.3,2558.4,65.3,3282.4,241.6,577.2,2574.3,3280.9,231,75.6,21.7
0.119209,575.6,102.5,2557.8,67.1,3275.1,235.6,579,2571,3275.8,230.6,75.6,21.8
0.121209,578.2,102.5,2556.6,69.5,3263.9,235.5,580.9,2567.4,3270.8,230.2,75.6,22.4
0.123209,580.4,101.7,2554.7,73.5,3252.4,241.2,582.8,2563.4,3265.8,229.8,75.6,23.3
0.125209,582.1,99.7,2552.6,79.8,3245.7,254.1,584.9,2559.2,3260.9,229.4,75.6,24.2
0.127209,583.6,96.4,2550.4,89.1,3244.7,275.7,587,2554.8,3256.1,229,75.6,24.6
0.129209,585.5,92.6,2547.5,99.5,3244.5,304.1,589.2,2550.1,3251.4,228.5,75.6,24.4
0.131209,588.5,89.1,2543.8,107.5,3237.0,333.6,591.5,2545.3,3246.8,228,75.6,23.6
0.133209,593.0,86.6,2540.1,110.3,3220.1,352.1,593.9,2540.3,3242.3,227.5,75.6,22.3
0.135209,598.8,85.0,2537.8,108.7,3204.3,350.1,596.4,2535.2,3238,227,75.6,21
0.137209,605.3,82.8,2537.3,106.3,3199.6,340.4,599,2530,3233.9,226.5,75.6,19.9
0.139209,611.0,79.0,2537.8,107.3,3206.9,342.9,601.7,2524.7,3229.8,225.9,75.6,19.2
0.141209,616.1,74.0,2537.4,112.8,3218.7,354.2,604.5,2519.4,3225.9,225.3,75.7,18.9
0.143209,621.3,69.2,2534.4,120.3,3226.3,353.9,607.5,2514,3222.1,224.7,75.7,18.7
0.145209,626.6,65.0,2529.5,126.9,3226.4,334.7,610.5,2508.6,3218.3,224.1,75.8,18.5
0.147209,631.9,60.5,2524.5,131.7,3221.5,309.4,613.6,2503.1,3214.6,223.4,75.9,18.3
0.149209,636.4,55.7,2520.2,134.2,3214.2,293.7,616.9,2497.6,3210.9,222.7,76,17.9
0.151209,640.0,51.1,2514.5,134.2,3203.9,291.7,620.3,2492,3207.2,222,76.1,17.4
0.153209,642.7,47.0,2505.5,133.4,3189.6,305.1,623.7,2486.4,3203.5,221.3,76.3,16.7
0.155209,644.4,43.6,2494.7,135.4,3173.8,334.9,627.3,2480.8,3199.7,220.5,76.4,16.1
0.157209,645.2,40.6,2483.1,143.5,3159.9,384.5,631,2475.1,3195.7,219.7,76.5,15.6
0.159209,644.9,38.2,2473.0,159.1,3153.2,455.4,634.7,2469.3,3191.7,218.9,76.6,15.3
0.161209,643.6,36.5,2465.7,181.7,3153.9,548.9,638.5,2463.4,3187.3,218,76.7,15.3
0.163209,641.7,35.8,2460.6,207.0,3155.1,654.1,642.4,2457.4,3182.8,217.1,76.6,15.3
0.165209,639.3,36.3,2455.5,225.6,3150.7,733.8,646.3,2451.2,3177.9,216.2,76.6,15.3
0.167209,636.6,38.3,2449.0,232.7,3144.3,755.7,650.3,2444.9,3172.8,215.3,76.4,15.2
0.169209,634.0,42.0,2442.7,231.2,3141.3,720.2,654.4,2438.4,3167.2,214.4,76.1,14.9
0.171209,632.1,47.8,2436.9,228.5,3137.2,657.1,658.4,2431.7,3161.3,213.4,75.8,14.3
0.173209,632.0,55.6,2429.5,227.3,3128.4,588.9,662.5,2424.7,3154.9,212.4,75.5,13.6
0.175209,634.4,64.4,2418.2,227.1,3119.9,538.3,666.6,2417.4,3148,211.4,75.1,12.8
0.177209,639.7,73.2,2402.5,227.6,3118.7,513.7,670.7,2409.8,3140.6,210.3,74.6,12.2
0.179209,646.7,81.6,2385.2,226.4,3125.6,507.4,674.8,2401.9,3132.7,209.3,74.2,11.7
0.181209,654.5,90.8,2369.3,222.9,3132.5,505.7,678.9,2393.6,3124.3,208.2,73.8,11.2
0.183209,663.1,102.4,2357.5,220.7,3131.8,509.7,683,2384.9,3115.3,207.2,73.4,10.7
0.185209,672.8,115.7,2350.7,223.2,3122.7,524.9,687,2375.7,3105.8,206.1,73,10.5
0.187209,684.1,128.9,2347.1,230.9,3108.1,553.5,690.9,2366.2,3095.7,205,72.7,10.4
0.189209,695.4,137.5,2345.1,241.7,3095.1,591.9,694.8,2356.1,3085.1,203.9,72.5,10.6
0.191209,705.8,139.4,2342.7,254.9,3090.2,637.6,698.7,2345.6,3074,202.8,72.4,11.4
0.193209,716.0,136.9,2337.9,271.4,3094.9,658.5,702.4,2334.6,3062.4,201.7,72.3,12.4
0.195209,725.7,133.3,2330.6,300.5,3099.7,635.4,706.1,2323,3050.3,200.6,72.3,13.4
0.197209,733.9,130.7,2321.4,353.9,3097.6,597.5,709.7,2311,3037.8,199.5,72.2,14
0.199209,738.7,129.2,2311.1,407.5,3098.6,586.4,713.3,2298.4,3024.9,198.4,72.1,14
0.201209,739.6,127.3,2298.7,414.2,3114.2,624.9,716.7,2285.2,3011.8,197.3,71.9,13.5
0.203209,738.1,125.0,2280.8,381.5,3139.4,695.6,720,2271.6,2998.3,196.3,71.7,12.5
0.205209,736.8,125.2,2258.0,347.5,3166.2,767.9,723.2,2257.4,2984.7,195.2,71.5,11.6
0.207209,736.0,129.3,2230.8,324.7,3193.2,839.7,726.3,2242.7,2971,194.2,71.3,10.9
0.209209,735.8,135.2,2201.7,316.6,3208.2,906.1,729.3,2227.5,2957.3,193.1,71.1,10.6
0.211209,735.9,140.1,2173.2,328.1,3195.8,973.1,732.2,2211.8,2943.6,192.1,71,10.7
0.213209,736.8,142.0,2149.4,370.2,3136.6,1038.7,734.9,2195.7,2930,191.1,70.8,11
0.215209,740.2,141.5,2135.8,449.8,3032.4,1052.5,737.6,2179.2,2916.8,190.1,70.7,11.4
0.217209,747.3,141.4,2134.5,565.7,2924.0,997.1,740.1,2162.2,2903.8,189.1,70.5,11.7
0.219209,755.5,142.7,2151.1,682.7,2851.9,964.6,742.6,2144.9,2891.3,188.2,70.3,11.8
0.221209,761.6,144.2,2184.8,752.4,2806.0,1033.7,744.9,2127.3,2879.3,187.2,70.2,11.7
0.223209,765.0,145.6,2212.5,743.6,2774.6,1228.1,747.2,2109.4,2868,186.3,70,11.6
0.225209,766.2,147.7,2201.2,713.1,2734.0,1479.7,749.4,2091.2,2857.5,185.4,69.9,11.4
0.227209,765.4,151.8,2138.7,711.2,2665.8,1628.8,751.4,2072.8,2847.7,184.5,69.7,11.3
0.229209,762.5,157.4,2046.9,672.8,2655.2,1628.1,753.4,2054.3,2838.9,183.6,69.6,11.4
0.231209,758.1,163.9,1992.7,586.5,2654.5,1692.3,755.3,2035.7,2831.2,182.7,69.4,11.5
0.233209,751.9,169.4,1981.0,509.5,2558.5,1816.0,757.2,2017.1,2824.5,181.8,69.3,11.7
0.235209,744.6,172.7,1983.7,454.3,2379.3,1830.8,758.9,1998.5,2819.1,181,69.1,11.9
0.237209,737.1,175.0,1980.2,410.9,2235.1,1724.9,760.7,1979.9,2814.9,180.2,69.1,12.1
0.239209,731.5,178.0,1961.3,373.9,2204.2,1648.9,762.3,1961.4,2812.1,179.3,68.9,12.3
0.241209,729.8,182.5,1932.8,336.4,2270.8,1673.3,763.9,1943,2810.7,178.5,68.8,12.5
0.243209,732.9,189.8,1905.0,299.6,2419.1,1808.3,765.5,1924.9,2810.7,177.7,68.6,12.8
0.245209,739.3,200.8,1883.4,272.1,2656.0,1993.7,767.1,1907.1,2812.3,177,68.4,13
0.247209,748.3,215.0,1868.3,257.2,2992.0,2034.3,768.6,1889.5,2815.3,176.2,68.2,13.1
0.249209,758.5,229.4,1860.0,258.2,3246.3,1820.4,770.1,1872.2,2819.9,175.4,68,13.1
0.251209,766.8,238.6,1851.5,275.3,3336.2,1748.6,771.5,1855.4,2826.1,174.7,67.7,13
0.253209,770.2,235.7,1832.4,300.5,3191.3,1929.6,773,1839,2833.8,174,67.5,12.8
0.255209,770.6,223.9,1803.2,312.1,2985.4,1759.4,774.5,1823,2843.1,173.3,67.3,12.5
0.257209,771.6,212.6,1776.7,301.3,2960.5,1574.2,775.9,1807.6,2853.8,172.6,67,12.4
0.259209,773.6,207.3,1764.6,280.0,3041.7,1534.3,777.4,1792.6,2866.1,172,66.8,12.5
0.261209,774.1,208.5,1763.7,260.2,3170.8,1595.2,778.8,1778.2,2879.7,171.3,66.5,12.9
0.263209,771.7,215.6,1765.4,248.5,3257.3,1837.4,780.2,1764.4,2894.7,170.7,66.2,13.4
0.265209,768.9,224.0,1762.7,248.4,3151.2,2154.0,781.7,1751.2,2911,170.1,66,13.8
0.267209,770.8,231.7,1753.8,259.8,3003.7,2398.2,783.1,1738.6,2928.5,169.5,65.7,13.9
0.269209,779.7,237.5,1740.3,274.4,2966.7,2672.7,784.6,1726.6,2947.1,168.9,65.5,13.7
0.271209,791.3,240.8,1726.5,275.6,3016.3,2791.7,786.1,1715.2,2966.7,168.4,65.2,12.9
0.273209,802.6,247.4,1719.0,254.5,3096.1,2676.4,787.5,1704.5,2987.2,167.9,65,11.8
0.275209,811.4,260.2,1715.3,224.0,3194.4,2438.3,789,1694.3,3008.5,167.4,64.7,10.8
0.277209,816.6,276.5,1708.9,198.8,3253.1,2076.7,790.4,1684.8,3030.3,167,64.4,10.1
0.279209,817.6,292.9,1698.6,186.4,3205.2,1741.5,791.8,1675.9,3052.7,166.5,64.1,9.9
0.281209,815.9,309.7,1685.9,184.0,3101.8,1595.0,793.3,1667.7,3075.4,166.1,63.9,10.1
0.283209,811.2,321.3,1672.3,182.3,2961.2,1517.1,794.7,1660,3098.3,165.8,63.6,10.7
0.285209,803.8,330.0,1661.0,174.0,2891.2,1460.2,796,1652.9,3121.2,165.4,63.4,11.3
0.287209,796.5,346.3,1653.2,160.9,2926.7,1507.2,797.4,1646.3,3144,165.1,63.2,11.7
0.289209,794.6,359.5,1647.4,145.6,3032.1,1595.6,798.7,1640.3,3166.5,164.8,63.1,11.8
0.291209,802.1,355.4,1642.8,130.2,3154.7,1658.3,800,1634.8,3188.7,164.5,63,11.6
0.293209,815.6,336.6,1638.5,116.6,3229.2,1723.4,801.2,1629.9,3210.2,164.2,62.8,11.3
0.295209,827.4,317.1,1633.9,106.5,3232.2,1811.6,802.4,1625.3,3231,164,62.7,11
0.297209,835.7,308.6,1627.5,100.4,3212.8,1961.7,803.5,1621.3,3251,163.8,62.5,10.7
0.299209,841.1,316.1,1619.1,99.7,3191.3,2235.4,804.5,1617.7,3269.9,163.6,62.3,10.6
0.301209,845.2,325.7,1610.7,102.2,3133.1,2561.3,805.5,1614.4,3287.7,163.4,62.1,10.7
0.303209,847.7,316.3,1605.4,103.8,3035.1,2747.5,806.4,1611.6,3304.2,163.3,61.8,10.8
0.305209,845.8,285.7,1602.2,101.6,3001.7,2656.3,807.3,1609.1,3319.3,163.1,61.5,11
0.307209,838.5,248.5,1597.9,95.8,3065.5,2278.4,808,1607,3332.8,163,61.2,11.1
0.309209,826.8,224.4,1593.3,88.8,3160.6,1826.6,808.7,1605.2,3344.8,162.9,60.8,11
0.311209,809.3,219.1,1590.5,84.1,3238.4,1454.0,809.2,1603.7,3355.1,162.8,60.4,11
0.313209,788.9,232.4,1590.4,84.3,3334.9,1268.3,809.7,1602.4,3363.7,162.8,60,10.9
0.315209,772.2,264.3,1592.3,90.0,3597.8,821.5,810,1601.5,3370.4,162.7,59.6,10.6
0.317209,757.3,310.9,1594.7,98.6,3566.7,575.0,810.3,1600.9,3375.2,162.6,59.3,10.1
0.319209,738.2,352.6,1594.2,105.7,3626.1,528.3,810.5,1600.5,3378.1,162.6,59,9
0.321209,710.0,369.5,1588.3,110.0,3711.4,507.8,810.5,1600.3,3379.1,162.5,58.9,7.6
