time,f1,b1,f2,b2,f3,b3,f1p,f2p,f3p,f0,intensity,harmonicity
0.025401,482.2,32.3,2711.4,138.4,3233.9,526.6,488,2725.1,3217.1,249.4,71.4,13.8
0.027401,484.8,28.6,2718.7,129.9,3206.9,478.6,488,2725.8,3218,249.2,71.8,15.7
0.029401,486.9,26.2,2724.6,119.5,3194.4,401.5,488,2727,3219.6,248.9,72.2,17.7
0.031401,488.2,24.3,2731.0,107.7,3194.7,337.9,487.9,2728.7,3221.7,248.6,72.5,19.5
0.033401,488.9,22.7,2736.6,99.4,3201.8,301.2,487.8,2730.9,3224.3,248.4,72.8,20.9
0.035401,489.2,21.2,2739.9,96.7,3208.7,280.8,487.6,2733.5,3227.5,248.1,73.1,21.7
0.037401,489.4,20.0,2740.6,97.7,3212.1,262.7,487.5,2736.5,3231.2,247.8,73.3,22
0.039401,489.6,19.0,2740.3,99.0,3214.9,243.1,487.3,2740,3235.3,247.4,73.5,22.1
0.041401,489.7,18.1,2741.0,99.2,3220.9,225.5,487.1,2743.8,3239.8,247.1,73.6,22.2
0.043401,489.5,17.4,2742.1,98.7,3230.5,214.7,486.9,2747.9,3244.7,246.8,73.8,22.6
0.045401,489.1,16.8,2742.8,97.9,3244.0,210.5,486.7,2752.4,3249.9,246.5,73.9,23.2
0.047401,488.4,16.4,2743.6,96.6,3260.6,211.4,486.4,2757.1,3255.3,246.1,74,24.1
0.049401,487.6,16.1,2745.6,95.3,3274.1,215.5,486.1,2762.1,3260.9,245.8,74.1,25
0.051401,486.7,15.9,2749.3,95.2,3281.6,223.4,485.8,2767.2,3266.7,245.5,74.2,25.7
0.053401,485.6,15.7,2755.2,97.0,3286.4,235.3,485.5,2772.6,3272.4,245.1,74.2,26
0.055401,484.4,15.6,2763.4,100.3,3294.4,252.1,485.2,2778,3278.2,244.8,74.3,25.9
0.057401,483.2,15.3,2773.7,103.7,3305.5,272.1,484.9,2783.5,3283.9,244.5,74.3,25.5
0.059401,482.3,14.9,2784.8,105.7,3314.3,290.3,484.5,2789,3289.4,244.1,74.4,24.9
0.061401,481.8,14.5,2796.9,106.3,3319.1,306.8,484.1,2794.6,3294.8,243.8,74.5,24.4
0.063401,481.7,14.0,2809.3,105.3,3323.7,326.9,483.8,2800,3299.9,243.5,74.5,24.2
0.065401,481.8,13.5,2822.5,102.5,3334.4,359.1,483.4,2805.4,3304.8,243.2,74.6,24.4
0.067401,481.9,13.0,2835.9,97.3,3350.9,400.5,483,2810.7,3309.3,242.9,74.8,24.8
0.069401,481.7,12.5,2846.9,91.9,3361.0,430.2,482.5,2815.8,3313.4,242.6,74.9,25.3
0.071401,481.5,12.0,2854.2,89.2,3353.9,430.7,482.1,2820.6,3317,242.3,75.1,25.8
0.073401,481.1,11.4,2857.1,90.2,3337.0,405.1,481.7,2825.3,3320.3,242,75.2,26.1
0.075401,480.7,10.9,2857.0,92.3,3327.4,380.1,481.2,2829.7,3323,241.7,75.4,26.1
0.077401,480.3,10.3,2855.4,93.8,3331.6,374.0,480.8,2833.8,3325.2,241.4,75.6,25.9
0.079401,479.9,9.8,2852.6,94.5,3342.6,383.5,480.3,2837.5,3327,241.2,75.7,25.6
0.081401,479.6,9.5,2848.8,95.7,3349.0,394.4,479.9,2841,3328.2,240.9,75.8,25.4
0.083401,479.3,9.3,2846.4,100.0,3342.3,393.6,479.4,2844.1,3328.8,240.7,75.9,25.2
0.085401,479.1,9.2,2847.9,108.0,3326.1,382.2,479,2846.8,3329,240.5,76,25.1
0.087401,479.0,9.2,2852.9,117.6,3306.9,371.3,478.5,2849.1,3328.6,240.2,76.1,25
0.089401,479.0,9.2,2857.7,125.7,3287.8,367.8,478,2851.1,3327.8,240,76.2,25
0.091401,479.1,9.4,2859.9,131.1,3267.3,371.1,477.6,2852.7,3326.4,239.8,76.2,24.9
0.093401,479.1,9.5,2858.2,132.7,3250.8,379.8,477.1,2853.9,3324.7,239.6,76.2,24.9
0.095401,478.9,9.6,2853.9,130.3,3249.9,396.1,476.7,2854.7,3322.5,239.3,76.2,24.7
0.097401,478.3,9.7,2846.6,126.2,3268.8,410.9,476.2,2855.2,3320,239.1,76.2,24.5
0.099401,477.4,9.8,2838.0,123.3,3292.1,404.5,475.7,2855.3,3317.1,238.9,76.2,24.3
0.101401,476.4,9.9,2831.7,120.5,3307.1,376.4,475.3,2855,3313.9,238.7,76.2,24.2
0.103401,475.5,10.0,2829.7,116.9,3310.4,340.1,474.9,2854.4,3310.5,238.6,76.1,24.3
0.105401,474.7,10.2,2831.0,113.9,3308.0,308.3,474.4,2853.6,3306.8,238.4,76.1,24.6
0.107401,474.0,10.4,2834.0,112.6,3306.4,287.2,474,2852.4,3303,238.2,76,25.2
0.109401,473.4,10.5,2836.5,112.6,3306.1,276.0,473.6,2851,3299.1,238,76,25.8
0.111401,472.7,10.6,2835.9,114.4,3302.5,269.6,473.2,2849.4,3295.2,237.8,76,26.4
0.113401,472.0,10.6,2830.5,118.7,3292.6,260.8,472.8,2847.6,3291.2,237.7,75.9,26.8
0.115401,471.3,10.7,2822.8,123.7,3281.3,245.3,472.4,2845.7,3287.2,237.5,75.9,27
0.117401,470.8,10.8,2817.5,127.6,3276.4,229.8,472,2843.6,3283.4,237.4,75.9,27.2
0.119401,470.5,11.0,2816.8,130.7,3279.6,222.0,471.6,2841.5,3279.6,237.2,75.9,27.2
0.121401,470.5,11.1,2819.3,134.6,3286.8,222.4,471.3,2839.2,3276,237.1,75.8,27.1
0.123401,470.4,11.2,2822.8,138.6,3291.9,229.6,470.9,2837,3272.6,236.9,75.8,26.8
0.125401,470.1,11.3,2827.8,143.2,3294.0,242.7,470.6,2834.8,3269.4,236.8,75.7,26.2
0.127401,469.8,11.3,2835.7,150.9,3296.5,262.2,470.3,2832.6,3266.4,236.7,75.7,25.3
0.129401,469.4,11.3,2843.7,161.4,3298.7,284.6,470,2830.5,3263.7,236.6,75.7,24.4
0.131401,469.0,11.3,2846.2,171.7,3293.5,301.5,469.7,2828.5,3261.3,236.5,75.6,23.6
0.133401,468.7,11.3,2839.6,177.1,3275.7,300.0,469.5,2826.7,3259.1,236.4,75.6,23.3
0.135401,468.5,11.3,2830.2,175.8,3254.2,280.1,469.2,2825,3257.3,236.3,75.6,23.5
0.137401,468.3,11.3,2825.3,169.1,3242.0,254.3,469,2823.5,3255.8,236.2,75.6,24.2
0.139401,468.3,11.2,2825.9,160.4,3241.4,232.0,468.8,2822.3,3254.6,236.1,75.6,25
0.141401,468.4,11.2,2830.0,151.8,3249.9,214.2,468.6,2821.2,3253.7,236,75.6,25.8
0.143401,468.5,11.0,2834.5,147.0,3263.0,202.7,468.4,2820.4,3253,236,75.7,26.5
0.145401,468.5,10.9,2836.3,148.1,3273.5,197.0,468.2,2819.9,3252.7,235.9,75.7,27
0.147401,468.5,10.8,2835.1,153.4,3275.9,196.1,468.1,2819.6,3252.6,235.8,75.7,27.3
0.149401,468.4,10.7,2833.7,159.1,3270.1,199.7,468,2819.6,3252.8,235.8,75.8,27.7
0.151401,468.2,10.5,2834.7,163.5,3260.9,208.2,467.9,2819.9,3253.1,235.8,75.8,28
0.153401,468.0,10.4,2838.7,166.4,3255.5,221.6,467.8,2820.5,3253.7,235.7,75.8,28.2
0.155401,467.8,10.3,2843.3,167.9,3255.2,238.4,467.7,2821.3,3254.5,235.7,75.8,28.5
0.157401,467.8,10.2,2845.2,167.8,3255.1,254.1,467.7,2822.4,3255.4,235.7,75.8,28.7
0.159401,467.8,10.2,2844.8,165.8,3251.5,263.9,467.7,2823.7,3256.4,235.7,75.8,28.9
0.161401,468.0,10.3,2843.8,163.8,3243.2,268.3,467.7,2825.3,3257.5,235.6,75.8,29
0.163401,468.4,10.4,2842.5,164.7,3232.8,269.5,467.7,2827.1,3258.6,235.6,75.8,29.1
0.165401,468.7,10.5,2840.7,168.1,3226.3,267.3,467.7,2829.1,3259.8,235.6,75.8,29.1
0.167401,468.9,10.6,2839.0,170.0,3228.1,259.2,467.7,2831.2,3261,235.6,75.7,29.1
0.169401,469.1,10.7,2838.3,169.3,3235.9,248.3,467.8,2833.5,3262.1,235.6,75.7,29.1
0.171401,469.2,10.8,2838.7,168.3,3247.1,241.7,467.8,2836,3263.3,235.6,75.7,29
0.173401,469.3,10.9,2838.7,170.3,3261.1,246.0,467.9,2838.5,3264.3,235.7,75.6,28.8
0.175401,469.2,10.9,2836.1,175.4,3277.1,258.6,468,2841,3265.3,235.7,75.6,28.3
0.177401,469.1,10.8,2831.1,180.4,3288.4,270.1,468.1,2843.6,3266.2,235.7,75.6,27.7
0.179401,468.8,10.7,2828.6,182.6,3288.3,276.5,468.2,2846.2,3266.9,235.7,75.5,27.1
0.181401,468.4,10.6,2831.0,183.0,3279.3,279.6,468.3,2848.7,3267.6,235.7,75.5,26.6
0.183401,467.9,10.6,2835.4,182.4,3269.4,278.0,468.5,2851.2,3268,235.8,75.4,26.3
0.185401,467.6,10.7,2837.9,180.5,3262.7,270.1,468.6,2853.5,3268.4,235.8,75.4,26.4
0.187401,467.4,11.0,2837.8,176.9,3259.5,258.4,468.7,2855.7,3268.6,235.8,75.4,26.8
0.189401,467.5,11.3,2837.7,172.6,3259.8,250.6,468.9,2857.7,3268.7,235.9,75.4,27.2
0.191401,467.6,11.7,2840.7,168.8,3263.5,251.2,469,2859.5,3268.6,235.9,75.4,27.6
0.193401,467.9,12.0,2846.9,167.0,3269.0,259.8,469.1,2861.1,3268.3,235.9,75.3,27.7
0.195401,468.2,12.4,2853.5,168.1,3274.0,271.2,469.3,2862.4,3268,236,75.3,27.4
0.197401,468.4,12.7,2857.5,173.3,3276.7,280.1,469.4,2863.5,3267.5,236,75.2,26.9
0.199401,468.7,13.0,2857.1,181.2,3275.6,280.2,469.6,2864.2,3266.9,236.1,75.2,26.2
0.201401,468.9,13.2,2851.8,187.8,3269.6,265.7,469.7,2864.6,3266.3,236.1,75.2,25.7
0.203401,469.3,13.4,2843.6,187.3,3260.7,238.2,469.9,2864.7,3265.5,236.1,75.1,25.3
0.205401,469.6,13.6,2835.6,178.6,3253.2,208.9,470,2864.4,3264.7,236.2,75.1,25.3
0.207401,470.0,13.8,2831.8,166.8,3250.1,188.9,470.1,2863.8,3263.8,236.2,75,25.5
0.209401,470.3,14.0,2834.6,158.9,3251.5,181.2,470.2,2862.8,3262.9,236.2,75,25.8
0.211401,470.5,14.1,2844.9,157.3,3256.7,182.3,470.4,2861.4,3262,236.3,74.9,26.1
0.213401,470.7,14.1,2858.5,160.9,3263.1,188.5,470.5,2859.7,3261.1,236.3,74.9,26.4
0.215401,470.6,14.1,2866.2,165.5,3266.4,195.7,470.6,2857.7,3260.2,236.3,74.9,26.6
0.217401,470.5,13.9,2863.2,168.1,3263.8,199.5,470.7,2855.3,3259.3,236.3,74.8,26.9
0.219401,470.6,13.9,2856.3,168.4,3257.4,198.0,470.7,2852.6,3258.5,236.3,74.8,27.1
0.221401,471.0,13.9,2852.4,168.3,3251.6,192.3,470.8,2849.5,3257.7,236.3,74.8,27.3
0.223401,471.5,13.9,2855.5,169.6,3251.9,187.2,470.9,2846.2,3257,236.3,74.8,27.5
0.225401,471.8,13.9,2863.7,171.9,3259.5,187.1,470.9,2842.7,3256.3,236.3,74.8,27.6
0.227401,471.8,13.6,2868.5,173.0,3267.6,188.3,471,2838.9,3255.7,236.3,74.8,27.7
0.229401,471.6,13.4,2864.5,170.0,3269.2,185.2,471,2834.9,3255.2,236.3,74.9,27.7
0.231401,471.2,13.1,2854.9,163.3,3264.1,179.2,471.1,2830.7,3254.8,236.3,75,27.7
0.233401,471.1,12.9,2845.6,156.7,3256.4,176.6,471.1,2826.4,3254.5,236.2,75,27.7
0.235401,471.2,12.6,2839.9,153.2,3250.9,182.7,471.1,2822,3254.2,236.2,75.1,27.7
0.237401,471.3,12.3,2839.6,152.9,3251.5,199.2,471.1,2817.6,3254.1,236.1,75.3,27.6
0.239401,471.3,11.9,2843.0,154.1,3257.2,219.3,471.2,2813.1,3254,236,75.4,27.6
0.241401,471.4,11.5,2846.1,156.4,3263.5,236.2,471.2,2808.7,3254,235.9,75.6,27.5
0.243401,471.5,11.2,2845.9,159.4,3266.2,246.6,471.2,2804.3,3254.1,235.9,75.7,27.2
0.245401,471.9,10.9,2842.4,162.0,3266.7,252.5,471.2,2800,3254.2,235.8,75.9,26.9
0.247401,472.3,10.5,2835.5,162.1,3268.7,251.2,471.2,2795.8,3254.3,235.7,76.1,26.4
0.249401,472.6,10.1,2824.3,158.8,3272.3,238.7,471.1,2791.8,3254.5,235.5,76.3,25.9
0.251401,472.8,9.7,2807.4,152.5,3273.5,218.2,471.1,2788,3254.8,235.4,76.5,25.4
0.253401,472.7,9.4,2789.1,144.8,3270.4,201.5,471.1,2784.5,3255,235.3,76.7,24.9
0.255401,472.4,9.1,2774.1,137.7,3264.5,195.1,471.1,2781.3,3255.3,235.2,76.9,24.5
0.257401,472.0,8.8,2763.3,132.5,3256.0,199.2,471.1,2778.3,3255.5,235,77.1,24
0.259401,471.5,8.6,2755.2,130.9,3245.7,213.3,471.1,2775.7,3255.7,234.9,77.3,23.6
0.261401,471.0,8.6,2748.3,131.3,3235.5,230.8,471.1,2773.5,3256,234.7,77.4,23.1
0.263401,470.6,8.7,2741.9,131.3,3228.5,242.8,471.1,2771.6,3256.1,234.6,77.5,22.6
0.265401,470.1,9.1,2736.1,130.2,3227.6,254.4,471.1,2770.1,3256.3,234.4,77.6,22.1
0.267401,469.5,9.6,2730.5,127.7,3234.3,275.6,471.1,2769,3256.4,234.3,77.6,21.6
0.269401,468.6,10.3,2724.4,123.2,3247.8,300.6,471.1,2768.4,3256.5,234.1,77.5,21.1
0.271401,467.3,11.1,2715.5,116.7,3266.4,316.4,471.1,2768.2,3256.5,234,77.4,20.5
