time,f1,b1,f2,b2,f3,b3,f1p,f2p,f3p,f0,intensity,harmonicity
0.025633,500.5,82.3,2088.8,174.7,3197.9,256.2,519.7,2303.8,3328.2,279.8,72.5,8
0.027633,510.8,63.5,2136.8,185.9,3220.4,315.0,518.5,2307.9,3328.6,279.7,72.8,6.6
0.029633,514.9,56.2,2201.1,195.8,3250.0,400.9,516.4,2314.7,3329.4,279.6,72.9,7.9
0.031633,514.6,54.1,2258.9,192.6,3292.0,474.1,513.6,2324,3330.4,279.5,73,10.3
0.033633,510.9,55.5,2301.4,187.6,3332.7,500.4,510,2335.9,3331.8,279.4,73,13
0.035633,505.1,59.6,2336.3,195.4,3357.1,492.7,505.8,2350.2,3333.6,279.3,72.9,15.4
0.037633,498.4,64.8,2377.6,215.5,3372.4,480.1,500.9,2366.7,3335.7,279.2,72.8,17
0.039633,491.8,68.2,2425.5,235.2,3384.9,468.8,495.4,2385.3,3338.2,279.1,72.7,18.1
0.041633,485.8,68.6,2467.5,242.7,3393.1,451.2,489.4,2405.8,3341.2,278.9,72.6,19
0.043633,480.0,68.2,2495.8,242.7,3396.3,428.8,483,2427.9,3344.6,278.7,72.5,19.8
0.045633,474.2,68.9,2513.2,246.1,3397.2,416.4,476.2,2451.5,3348.5,278.5,72.4,20.4
0.047633,468.2,71.7,2529.3,256.8,3398.3,422.8,469.2,2476.3,3352.9,278.3,72.3,21
0.049633,462.1,76.5,2549.8,274.3,3400.3,448.1,462,2502,3357.9,278.1,72.2,21.5
0.051633,456.0,82.7,2576.3,298.3,3401.3,486.8,454.7,2528.5,3363.6,277.8,72.1,21.8
0.053633,449.9,89.1,2608.9,332.6,3398.2,539.8,447.3,2555.5,3369.8,277.6,72,22.1
0.055633,444.6,94.8,2646.8,375.2,3392.0,612.0,440.1,2582.8,3376.7,277.3,71.9,22.3
0.057633,439.6,99.7,2692.6,417.0,3386.6,708.0,433,2610,3384.3,276.9,71.8,22.5
0.059633,434.6,103.2,2742.6,437.7,3388.4,815.5,426.2,2636.9,3392.6,276.6,71.7,22.5
0.061633,429.4,104.9,2782.8,422.1,3406.4,904.2,419.7,2663.4,3401.6,276.2,71.7,22.5
0.063633,424.0,104.2,2800.7,384.2,3436.0,935.7,413.6,2689.2,3411.3,275.8,71.6,22.5
0.065633,419.2,101.5,2800.0,354.0,3455.2,910.2,407.9,2714.2,3421.8,275.4,71.6,22.4
0.067633,414.7,97.7,2792.0,340.1,3461.6,860.9,402.7,2738.1,3433,274.9,71.6,22.3
0.069633,409.8,94.1,2783.6,337.2,3465.6,806.0,398.1,2760.7,3445,274.5,71.6,22.1
0.071633,404.3,91.9,2780.0,332.7,3472.4,757.5,394.1,2782.1,3457.7,273.9,71.5,21.9
0.073633,398.3,91.0,2783.9,317.4,3480.7,726.5,390.7,2801.9,3471.1,273.4,71.5,21.7
0.075633,392.8,90.4,2792.3,296.6,3489.1,719.1,387.9,2820.2,3485.1,272.8,71.5,21.6
0.077633,388.2,89.3,2801.3,279.9,3499.3,731.1,385.8,2836.8,3499.8,272.2,71.4,21.6
0.079633,384.5,88.0,2809.1,272.3,3512.0,756.4,384.3,2851.8,3515,271.6,71.4,21.9
0.081633,381.4,87.1,2815.2,273.4,3524.7,787.1,383.5,2865,3530.7,270.9,71.4,22.2
0.083633,379.0,86.5,2819.9,280.5,3533.9,815.3,383.3,2876.5,3546.9,270.2,71.3,22.6
0.085633,377.2,85.5,2823.7,291.8,3537.4,832.2,383.6,2886.4,3563.5,269.5,71.3,22.8
0.087633,376.0,84.1,2828.8,308.3,3537.3,838.5,384.6,2894.6,3580.3,268.7,71.2,22.7
0.089633,375.3,82.9,2837.0,329.6,3536.8,842.8,386,2901.2,3597.4,267.9,71.1,22.5
0.091633,375.1,82.3,2846.9,352.6,3532.7,855.2,387.9,2906.3,3614.5,267.1,71.1,22.1
0.093633,375.7,82.2,2855.6,370.7,3523.5,883.3,390.2,2909.9,3631.7,266.2,71,21.7
0.095633,377.9,82.3,2863.8,370.1,3523.9,940.8,392.9,2912.3,3648.8,265.3,70.9,21.2
0.097633,382.7,81.6,2875.1,345.9,3542.9,1053.1,395.9,2913.4,3665.6,264.4,70.8,20.8
0.099633,390.2,79.5,2889.1,303.7,3581.9,1232.7,399.1,2913.5,3682.1,263.4,70.7,20.1
0.101633,399.5,76.9,2900.4,258.1,3647.0,1448.2,402.5,2912.7,3698.2,262.4,70.7,19.5
0.103633,409.2,75.0,2904.6,222.1,3753.3,1601.8,406,2911,3713.7,261.3,70.6,18.8
0.105633,417.3,73.6,2901.8,202.3,3854.5,1568.5,409.5,2908.6,3728.5,260.2,70.5,18.4
0.107633,423.2,71.5,2895.9,191.2,3889.6,1427.2,413,2905.7,3742.5,259.1,70.5,18.2
0.109633,427.1,69.3,2890.4,181.3,3890.0,1289.6,416.5,2902.4,3755.6,258,70.4,18.5
0.111633,429.0,67.4,2886.4,174.3,3879.4,1164.4,419.8,2898.7,3767.6,256.8,70.3,18.9
0.113633,428.5,65.8,2883.0,175.7,3848.8,1038.9,423,2894.9,3778.5,255.6,70.2,19.3
0.115633,425.9,64.7,2880.3,185.7,3809.6,925.8,426,2891,3788.1,254.4,70.1,19.4
0.117633,422.0,64.0,2879.0,197.8,3779.7,833.4,428.7,2887.1,3796.3,253.1,70,19
0.119633,418.8,63.5,2882.5,204.4,3765.6,778.3,431.1,2883.2,3803.2,251.8,70,18.1
0.121633,418.4,62.7,2892.7,204.1,3764.2,768.2,433.3,2879.5,3808.4,250.5,70,16.9
0.123633,422.2,60.6,2907.1,200.0,3776.7,793.7,435.1,2876,3812.1,249.2,70,15.6
0.125633,428.8,56.7,2918.5,194.3,3809.6,820.5,436.7,2872.7,3814.2,247.8,70.1,14.7
0.127633,435.6,51.6,2923.3,188.9,3858.2,801.7,437.9,2869.6,3814.5,246.4,70.2,14.2
0.129633,440.6,46.4,2921.6,184.8,3881.4,722.2,438.9,2866.7,3813.1,245.1,70.3,14.3
0.131633,443.3,42.0,2915.1,177.1,3867.1,654.5,439.6,2864,3809.9,243.7,70.4,14.5
0.133633,444.5,38.4,2904.9,158.6,3846.8,592.6,440,2861.5,3804.9,242.2,70.5,14.9
0.135633,444.7,35.9,2893.7,134.6,3829.9,535.0,440.3,2859.2,3798.1,240.8,70.6,15.1
0.137633,444.4,33.9,2883.2,114.9,3814.3,489.5,440.3,2856.9,3789.6,239.4,70.8,15
0.139633,444.2,31.8,2874.1,104.4,3798.2,462.5,440.2,2854.6,3779.3,238,70.9,14.7
0.141633,445.2,28.7,2867.0,102.8,3778.5,453.7,440,2852.2,3767.3,236.5,71.2,14.3
0.143633,447.7,24.7,2862.5,107.6,3751.7,452.2,439.8,2849.7,3753.7,235.1,71.5,13.9
0.145633,450.8,20.5,2860.7,116.2,3719.7,450.8,439.6,2846.8,3738.5,233.6,71.8,13.6
0.147633,453.3,16.7,2859.8,126.4,3684.0,446.7,439.5,2843.7,3721.9,232.2,72.3,13.5
0.149633,454.4,13.6,2857.5,135.7,3646.6,436.7,439.5,2840.1,3703.8,230.7,72.8,13.4
0.151633,454.3,11.1,2851.3,139.9,3608.0,422.3,439.6,2835.9,3684.5,229.3,73.4,13.5
0.153633,453.3,9.3,2841.0,135.3,3577.0,411.0,440,2831.1,3664,227.8,74,13.6
0.155633,451.9,8.1,2828.1,123.4,3557.4,407.4,440.7,2825.5,3642.5,226.4,74.5,13.8
0.157633,450.1,7.5,2815.1,109.1,3547.9,412.1,441.7,2819.1,3620.1,224.9,75,13.9
0.159633,448.0,7.3,2803.0,97.2,3541.6,424.4,443.1,2811.8,3596.9,223.5,75.4,14.1
0.161633,445.8,7.8,2791.7,90.2,3535.7,440.2,444.9,2803.5,3573.1,222.1,75.6,14.4
0.163633,443.8,8.7,2780.9,88.9,3533.8,446.7,447.1,2794.2,3548.9,220.6,75.8,14.6
0.165633,442.5,10.3,2768.3,92.5,3532.4,435.7,449.9,2783.8,3524.4,219.2,75.8,14.7
0.167633,441.8,12.6,2752.7,101.3,3521.7,412.7,453.1,2772.2,3499.8,217.8,75.6,14.5
0.169633,441.9,15.8,2734.2,113.8,3497.5,389.1,456.8,2759.5,3475.2,216.4,75.3,14
0.171633,442.8,19.9,2714.8,127.8,3465.3,372.0,461.1,2745.6,3450.8,214.9,74.9,13.4
0.173633,444.9,25.7,2696.0,142.2,3433.7,363.0,465.9,2730.6,3426.7,213.5,74.3,12.8
0.175633,448.9,33.3,2679.1,155.6,3410.7,359.6,471.2,2714.4,3403.2,212.1,73.6,12.1
0.177633,455.8,42.9,2661.9,167.0,3393.9,355.5,477,2697.1,3380.3,210.8,72.8,11.6
0.179633,467.1,53.4,2643.7,173.8,3379.6,347.0,483.3,2678.7,3358.2,209.4,72,10.9
0.181633,483.1,61.6,2626.2,176.7,3365.5,335.0,490.1,2659.4,3337.1,208,71.3,10.3
0.183633,501.8,64.6,2609.1,178.7,3349.7,323.1,497.3,2639.1,3317,206.6,70.8,9.7
0.185633,517.9,62.3,2591.5,181.6,3331.3,315.7,505,2618,3298.1,205.3,70.6,9.4
0.187633,529.3,57.0,2570.8,185.4,3309.5,315.6,513,2596.1,3280.5,204,70.6,9.4
0.189633,535.9,50.5,2548.2,188.5,3287.7,323.1,521.3,2573.6,3264.2,202.7,70.8,9.8
0.191633,539.5,44.5,2526.6,190.0,3270.7,332.7,529.9,2550.5,3249.4,201.4,71.1,10.5
0.193633,543.0,39.4,2507.1,190.9,3258.9,338.1,538.7,2527,3236.1,200.1,71.5,11.2
0.195633,548.2,35.5,2490.3,192.8,3250.4,336.2,547.7,2503.1,3224.3,198.8,71.8,11.6
0.197633,555.7,32.5,2475.4,194.7,3243.2,329.0,556.8,2479.1,3214.1,197.6,72,11.5
0.199633,564.3,30.8,2463.9,194.4,3238.5,320.9,566,2455,3205.5,196.3,72.1,11.1
0.201633,572.9,30.8,2455.1,191.2,3236.4,314.8,575.2,2431,3198.5,195.1,72.1,10.5
0.203633,580.4,32.5,2444.9,188.0,3234.9,314.7,584.4,2407.1,3193.1,193.9,72,9.7
0.205633,585.3,35.9,2429.9,189.1,3232.1,324.2,593.5,2383.4,3189.3,192.8,71.7,9
0.207633,589.0,41.6,2407.6,194.7,3224.3,338.4,602.4,2360.2,3187,191.7,71.3,8.3
0.209633,594.8,50.0,2378.4,200.4,3208.9,345.0,611.2,2337.4,3186.1,190.5,70.7,7.5
0.211633,606.0,61.6,2344.8,200.6,3188.5,338.4,619.8,2315.3,3186.6,189.5,70.2,6.7
0.213633,622.1,73.7,2315.9,195.8,3171.2,328.8,628.1,2293.8,3188.5,188.4,69.6,6
0.215633,638.8,83.1,2294.2,193.3,3160.2,330.4,636.1,2273,3191.5,187.4,69.1,5.5
0.217633,652.3,87.6,2277.1,197.5,3154.6,348.6,643.8,2253.1,3195.7,186.4,68.8,5.5
0.219633,663.7,87.5,2260.0,204.1,3152.1,376.7,651.1,2234,3200.8,185.4,68.6,5.8
0.221633,675.9,84.6,2239.6,205.4,3152.0,408.3,658.1,2215.9,3206.8,184.5,68.6,6.5
0.223633,687.2,81.3,2219.0,199.5,3155.3,441.6,664.7,2198.7,3213.5,183.6,68.7,7.2
0.225633,694.8,79.3,2201.3,191.6,3163.0,478.8,670.9,2182.5,3220.9,182.8,68.8,7.9
0.227633,697.6,79.4,2186.9,186.8,3173.9,516.4,676.7,2167.4,3228.7,181.9,68.9,8.3
0.229633,697.7,80.7,2173.0,184.1,3184.1,546.9,682.1,2153.2,3236.8,181.2,69,8.5
0.231633,698.3,81.4,2155.9,178.7,3190.1,565.4,687,2140.2,3245.1,180.4,69,8.7
0.233633,700.2,81.0,2136.1,168.7,3192.8,575.8,691.6,2128.2,3253.5,179.7,69,8.9
0.235633,702.3,80.4,2115.4,155.4,3197.5,584.7,695.8,2117.2,3261.7,179.1,68.8,9.1
0.237633,702.1,80.6,2097.9,141.0,3207.1,587.9,699.5,2107.2,3269.8,178.4,68.7,9.2
0.239633,698.9,82.6,2085.3,127.3,3221.6,579.4,702.9,2098.3,3277.5,177.9,68.5,9.3
0.241633,694.9,86.1,2076.8,115.0,3241.3,562.1,705.8,2090.4,3284.7,177.3,68.2,9.4
0.243633,693.7,88.3,2070.6,104.2,3268.7,539.3,708.4,2083.5,3291.4,176.8,67.9,9.5
0.245633,696.2,86.5,2065.6,96.2,3301.6,513.0,710.6,2077.5,3297.4,176.3,67.5,9.6
0.247633,700.0,81.4,2060.6,92.1,3335.2,485.8,712.5,2072.5,3302.6,175.9,67,9.7
0.249633,702.5,76.7,2055.1,93.5,3361.8,468.4,714,2068.5,3307,175.5,66.6,9.7
0.251633,704.2,75.3,2048.6,100.8,3380.0,470.3,715.2,2065.3,3310.5,175.2,66.1,9.7
0.253633,707.4,77.5,2041.2,111.7,3394.7,489.1,716,2063.1,3313,174.9,65.5,9.8
0.255633,713.6,80.5,2032.2,122.3,3413.6,515.9,716.5,2061.7,3314.5,174.6,65,9.8
0.257633,721.0,81.8,2020.3,130.9,3439.1,548.2,716.7,2061.3,3315,174.3,64.4,10
