time,f1,b1,f2,b2,f3,b3,f1p,f2p,f3p,f0,intensity,harmonicity
0.025905,665.2,48.5,2259.6,278.6,2926.4,328.2,730.5,2206.8,3045.4,234.1,75.6,9.1
0.027905,678.4,45.1,2244.5,269.2,2918.7,348.1,730.8,2205.9,3046.3,233.9,76,10.7
0.029905,688.1,43.1,2231.1,261.6,2908.7,371.7,731.4,2204.5,3047.9,233.7,76.3,11.4
0.031905,695.6,42.9,2220.6,257.6,2901.4,399.5,732.1,2202.5,3050,233.4,76.5,11.8
0.033905,701.5,44.9,2213.8,258.1,2902.8,431.4,733.1,2200,3052.7,233.1,76.6,12
0.035905,706.2,49.0,2208.8,263.5,2914.1,465.3,734.3,2196.9,3056.1,232.8,76.6,12.3
0.037905,710.5,55.5,2202.9,274.3,2930.7,501.3,735.7,2193.2,3060,232.5,76.6,12.9
0.039905,714.9,64.4,2195.9,287.4,2946.6,541.6,737.3,2189.1,3064.4,232.2,76.5,13.5
0.041905,720.5,75.8,2191.1,298.5,2965.8,597.2,739.1,2184.4,3069.5,231.9,76.4,14.2
0.043905,727.6,89.5,2192.2,303.4,3000.2,676.6,741.2,2179.2,3075,231.6,76.2,15
0.045905,736.4,103.4,2194.7,300.8,3055.2,764.0,743.4,2173.6,3081,231.3,76.1,15.8
0.047905,746.0,114.5,2187.4,293.4,3111.8,832.6,745.8,2167.5,3087.5,231,76,16.6
0.049905,754.8,120.5,2168.5,281.8,3149.2,872.5,748.4,2160.9,3094.5,230.6,75.9,17.6
0.051905,762.4,122.8,2145.9,265.5,3173.4,897.9,751.2,2153.9,3101.9,230.3,75.9,18.7
0.053905,768.7,123.5,2127.7,250.0,3193.0,923.2,754.1,2146.5,3109.7,230,75.9,19.7
0.055905,774.1,124.5,2114.5,239.3,3208.1,951.5,757.3,2138.8,3117.9,229.7,76,20.4
0.057905,779.2,125.7,2102.5,232.6,3211.2,972.6,760.6,2130.7,3126.4,229.3,76,20.6
0.059905,784.1,126.9,2090.7,227.8,3209.7,963.4,764,2122.3,3135.2,229,76.1,20.2
0.061905,789.2,128.9,2080.5,223.3,3225.5,912.4,767.7,2113.5,3144.4,228.7,76.2,19.6
0.063905,794.5,132.3,2072.6,221.5,3255.3,835.7,771.4,2104.6,3153.7,228.4,76.2,18.8
0.065905,799.6,136.3,2066.0,223.8,3276.9,762.3,775.3,2095.3,3163.3,228.1,76.2,18.3
0.067905,804.6,141.0,2059.9,227.6,3283.9,704.9,779.4,2085.9,3173,227.8,76.3,18.1
0.069905,809.5,145.4,2053.6,228.8,3278.4,671.4,783.5,2076.3,3182.9,227.5,76.2,18.3
0.071905,813.9,148.0,2044.6,225.7,3260.9,660.7,787.8,2066.5,3193,227.2,76.2,18.6
0.073905,818.4,150.9,2035.9,219.0,3249.0,652.4,792.1,2056.6,3203.1,226.9,76.2,18.9
0.075905,823.8,158.1,2031.2,210.9,3262.9,626.2,796.6,2046.5,3213.2,226.6,76.1,19.3
0.077905,830.3,170.2,2029.3,202.9,3298.7,573.5,801.2,2036.5,3223.3,226.3,76,19.6
0.079905,836.2,182.5,2025.6,195.5,3331.7,520.2,805.8,2026.3,3233.5,226.1,75.9,19.9
0.081905,840.4,191.7,2017.4,189.1,3356.0,485.9,810.5,2016.2,3243.6,225.8,75.8,20.2
0.083905,843.8,199.0,2007.2,183.7,3373.4,461.5,815.2,2006.1,3253.6,225.5,75.8,20.4
0.085905,847.3,206.3,1997.5,179.8,3381.9,440.1,820,1996,3263.5,225.2,75.7,20.6
0.087905,850.8,212.8,1987.5,178.0,3380.8,427.9,824.8,1986.1,3273.2,225,75.6,20.6
0.089905,853.5,216.1,1976.9,179.1,3374.2,427.4,829.7,1976.2,3282.8,224.7,75.6,20.6
0.091905,856.0,217.6,1966.1,183.6,3367.9,429.1,834.6,1966.4,3292.2,224.4,75.5,20.4
0.093905,858.6,219.4,1956.2,191.8,3365.1,430.7,839.4,1956.8,3301.3,224.2,75.4,20.2
0.095905,860.9,221.2,1946.2,202.9,3363.6,446.1,844.3,1947.3,3310.3,223.9,75.4,19.9
0.097905,862.8,221.9,1934.5,215.2,3361.4,489.1,849.1,1938.1,3318.9,223.6,75.3,19.6
0.099905,865.2,222.8,1923.8,225.5,3359.9,531.7,853.9,1929,3327.3,223.4,75.3,19.2
0.101905,868.5,223.8,1915.5,232.8,3353.2,526.4,858.7,1920.2,3335.4,223.1,75.2,18.7
0.103905,872.2,223.6,1908.9,237.8,3337.8,482.5,863.4,1911.7,3343.2,222.8,75.2,18.3
0.105905,875.7,222.7,1903.2,243.4,3325.9,440.6,868.1,1903.4,3350.6,222.5,75.1,18
0.107905,879.2,222.6,1897.3,251.2,3323.5,421.5,872.7,1895.4,3357.7,222.3,75.1,17.8
0.109905,882.3,224.1,1891.5,259.2,3331.5,427.8,877.2,1887.7,3364.4,222,75.2,18
0.111905,885.0,226.8,1885.8,265.2,3350.0,448.7,881.6,1880.4,3370.8,221.7,75.3,18.2
0.113905,886.2,229.6,1880.0,269.7,3375.9,473.9,885.9,1873.3,3376.8,221.5,75.3,18.4
0.115905,885.7,232.4,1873.5,275.9,3401.0,497.4,890.1,1866.6,3382.4,221.2,75.4,18.5
0.117905,884.4,234.7,1866.0,282.8,3405.7,542.6,894.2,1860.3,3387.7,221,75.4,18.3
0.119905,883.7,236.0,1859.4,284.4,3361.7,624.6,898.1,1854.3,3392.5,220.7,75.4,17.8
0.121905,884.6,238.4,1855.7,282.2,3311.3,644.7,901.9,1848.6,3397,220.4,75.4,17
0.123905,885.3,241.2,1852.2,281.4,3298.8,652.6,905.6,1843.3,3401.2,220.2,75.4,16.4
0.125905,883.5,240.7,1842.1,285.8,3299.0,676.5,909.1,1838.4,3404.9,219.9,75.4,16
0.127905,880.8,240.7,1826.2,300.8,3305.6,693.9,912.5,1833.9,3408.3,219.7,75.3,16.2
0.129905,880.7,245.6,1811.6,327.4,3320.8,666.2,915.7,1829.7,3411.4,219.5,75.3,17
0.131905,883.7,252.8,1802.6,360.4,3330.0,606.9,918.8,1825.9,3414.1,219.2,75.3,18.1
0.133905,889.1,257.5,1801.6,391.8,3338.2,567.5,921.7,1822.5,3416.5,219,75.3,19.2
0.135905,895.5,258.1,1806.8,417.9,3358.9,554.7,924.4,1819.4,3418.5,218.8,75.2,20.1
0.137905,902.0,257.4,1814.1,444.0,3395.9,533.0,926.9,1816.6,3420.3,218.6,75.2,20.4
0.139905,908.3,258.3,1821.1,470.2,3348.1,1765.6,929.3,1814.3,3421.7,218.4,75.2,20.2
0.141905,913.8,257.8,1827.5,486.5,3239.5,1807.4,931.4,1812.2,3422.9,218.2,75.2,19.8
0.143905,918.1,252.0,1833.3,480.7,3175.8,1852.7,933.4,1810.5,3423.8,218,75.2,19.3
0.145905,922.0,241.2,1838.5,452.9,3166.1,1909.7,935.2,1809.1,3424.5,217.8,75.1,18.8
0.147905,926.3,229.0,1843.0,413.1,3248.2,1965.6,936.9,1808,3425,217.6,75.1,18.4
0.149905,929.2,219.4,1843.6,377.1,3382.2,1947.5,938.3,1807.3,3425.2,217.5,75.1,17.9
0.151905,929.6,213.1,1839.5,349.7,3452.3,436.6,939.6,1806.8,3425.3,217.3,75,17.5
0.153905,928.3,209.3,1832.8,332.1,3445.3,457.0,940.7,1806.6,3425.2,217.2,75,17
0.155905,927.5,206.2,1825.6,324.8,3450.0,1617.7,941.7,1806.6,3425,217,74.9,16.7
0.157905,928.8,201.4,1818.2,327.5,3461.4,1453.7,942.4,1806.9,3424.6,216.9,74.9,16.7
0.159905,932.5,195.8,1811.7,338.8,3487.0,576.6,943.1,1807.5,3424.1,216.8,74.8,16.8
0.161905,937.1,190.5,1805.3,353.9,3502.5,597.9,943.5,1808.2,3423.5,216.7,74.8,17
0.163905,941.3,185.7,1799.4,367.2,3519.9,1279.5,943.9,1809.2,3422.9,216.6,74.8,17.4
0.165905,944.8,182.2,1796.9,379.2,3466.4,1389.6,944,1810.3,3422.2,216.5,74.8,17.6
0.167905,948.2,180.4,1799.1,392.3,3405.5,1505.7,944.1,1811.7,3421.4,216.4,74.8,17.8
0.169905,951.4,179.4,1804.9,399.5,3376.9,1587.1,944,1813.2,3420.7,216.3,74.9,18
0.171905,953.7,177.7,1811.6,391.1,3404.6,1645.1,943.9,1814.8,3419.9,216.2,74.9,18.2
0.173905,954.3,174.1,1815.5,365.9,3477.8,1647.7,943.6,1816.6,3419.2,216.1,75,18.4
0.175905,953.1,169.2,1815.9,335.7,3497.4,386.3,943.2,1818.4,3418.5,216.1,75,18.5
0.177905,951.7,165.7,1816.8,313.1,3510.2,455.5,942.8,1820.4,3417.8,216,75.1,18.5
0.179905,950.9,164.7,1820.8,303.5,3530.7,503.6,942.3,1822.5,3417.1,216,75.1,18.6
0.181905,950.3,164.8,1825.8,302.0,3538.6,505.3,941.7,1824.6,3416.6,215.9,75.2,18.6
0.183905,949.5,164.4,1828.7,303.2,3523.6,462.9,941.1,1826.8,3416.1,215.9,75.2,18.5
0.185905,948.6,163.7,1829.1,303.8,3501.6,409.7,940.4,1829.1,3415.7,215.8,75.2,18.4
0.187905,947.6,162.6,1828.9,302.7,3485.7,375.7,939.8,1831.4,3415.4,215.8,75.2,18.1
0.189905,947.1,162.2,1831.5,302.1,3478.7,359.9,939.1,1833.7,3415.2,215.7,75.3,17.7
0.191905,947.9,164.0,1838.1,304.6,3479.0,342.1,938.4,1836,3415.1,215.7,75.3,17.1
0.193905,949.9,167.9,1846.7,310.8,3482.9,308.8,937.7,1838.3,3415.1,215.7,75.3,16.6
0.195905,952.2,172.6,1854.7,317.5,3485.7,268.6,937.1,1840.6,3415.2,215.7,75.3,16.4
0.197905,953.0,174.9,1858.3,320.5,3462.7,2676.4,936.5,1842.9,3415.5,215.6,75.2,16.6
0.199905,950.8,172.4,1855.3,317.2,3414.4,2532.0,935.9,1845.2,3415.8,215.6,75.2,17.4
0.201905,946.5,165.8,1848.4,307.3,3351.3,2174.7,935.4,1847.4,3416.3,215.6,75.1,18.5
0.203905,942.4,158.5,1842.0,294.0,3297.8,1837.1,935,1849.6,3416.9,215.6,75,19.5
0.205905,939.9,154.5,1837.9,284.7,3278.5,1640.7,934.7,1851.7,3417.6,215.5,75,20.2
0.207905,938.7,154.7,1834.3,282.2,3312.1,1554.9,934.4,1853.8,3418.4,215.5,74.9,20.1
0.209905,937.7,156.1,1830.1,281.8,3403.5,1481.1,934.3,1855.8,3419.4,215.5,74.8,19.2
0.211905,936.5,156.1,1828.2,277.2,3545.9,1346.0,934.2,1857.7,3420.4,215.5,74.7,18
0.213905,935.4,155.0,1831.6,268.0,3530.5,404.1,934.3,1859.6,3421.5,215.5,74.7,16.7
0.215905,934.5,153.3,1838.2,256.8,3505.2,402.6,934.5,1861.4,3422.8,215.5,74.6,15.7
0.217905,933.7,151.5,1844.0,246.9,3497.6,400.8,934.8,1863.1,3424.1,215.5,74.6,15.4
0.219905,933.2,151.3,1847.2,242.5,3505.0,404.9,935.2,1864.8,3425.4,215.4,74.5,15.6
0.221905,933.4,153.6,1849.3,244.7,3528.6,398.3,935.8,1866.3,3426.9,215.4,74.5,16
0.223905,934.9,158.9,1852.4,252.9,3555.0,356.8,936.6,1867.8,3428.4,215.4,74.4,16.6
0.225905,938.3,166.1,1857.8,264.9,3500.7,1876.8,937.4,1869.2,3430,215.4,74.4,17.1
0.227905,943.1,172.8,1862.6,278.6,3402.1,2161.5,938.4,1870.6,3431.6,215.4,74.4,17.5
0.229905,947.5,177.6,1864.3,294.1,3351.1,2331.5,939.6,1871.8,3433.2,215.4,74.3,17.7
0.231905,950.9,181.7,1864.5,312.2,3348.3,2455.2,940.9,1873,3434.9,215.4,74.3,17.9
0.233905,952.8,184.0,1864.2,326.1,3359.4,2540.9,942.3,1874.1,3436.6,215.4,74.3,18.1
0.235905,952.5,183.2,1863.9,324.4,3353.5,2581.2,943.9,1875.1,3438.2,215.4,74.3,18.3
0.237905,951.4,180.3,1866.2,305.2,3338.2,2664.7,945.6,1876,3439.9,215.4,74.3,18.6
0.239905,950.7,177.3,1871.0,282.4,3315.7,2819.9,947.5,1876.9,3441.6,215.4,74.3,18.9
0.241905,950.6,174.9,1876.1,267.1,3291.6,3000.3,949.4,1877.7,3443.3,215.4,74.2,19.2
0.243905,951.3,173.4,1879.8,262.5,3289.0,3127.7,951.5,1878.4,3444.9,215.4,74.2,19.6
0.245905,953.3,173.2,1883.3,265.4,3336.9,3261.6,953.7,1879.1,3446.5,215.4,74.2,20
0.247905,957.1,174.1,1889.2,267.9,3449.6,3569.2,955.9,1879.7,3448.1,215.4,74.2,20.3
0.249905,961.3,174.0,1896.3,263.8,3486.1,160.0,958.3,1880.3,3449.6,215.4,74.3,20.7
0.251905,964.9,172.6,1902.1,255.7,3486.7,153.5,960.7,1880.8,3451.1,215.4,74.3,21.1
0.253905,967.5,171.0,1904.4,252.1,3484.2,149.6,963.2,1881.2,3452.5,215.4,74.3,21.5
0.255905,969.8,170.4,1903.4,257.0,3476.7,151.2,965.7,1881.6,3453.9,215.4,74.3,21.7
0.257905,973.6,171.0,1901.5,266.6,3462.8,156.1,968.3,1881.9,3455.2,215.4,74.3,21.5
0.259905,979.0,171.7,1901.2,272.2,3445.8,162.5,970.9,1882.2,3456.5,215.4,74.2,21.1
0.261905,984.1,171.5,1902.4,271.7,3430.5,175.4,973.4,1882.5,3457.7,215.4,74.2,20.5
0.263905,986.7,171.4,1904.4,270.8,3423.5,202.7,976,1882.7,3458.8,215.4,74.2,19.8
0.265905,986.2,172.6,1906.5,276.7,3432.3,245.0,978.6,1882.9,3459.8,215.4,74.1,19.2
0.267905,983.2,175.0,1905.8,294.3,3459.9,287.2,981.1,1883,3460.8,215.4,74,18.9
0.269905,978.6,176.6,1898.3,320.9,3487.9,307.2,983.5,1883.1,3461.8,215.3,74,18.8
0.271905,975.7,178.2,1889.0,349.5,3500.3,304.3,985.9,1883.2,3462.7,215.3,73.9,18.8
0.273905,976.9,182.1,1888.7,376.4,3499.1,282.5,988.1,1883.2,3463.5,215.3,73.8,18.8
0.275905,981.6,187.4,1901.5,396.7,3493.1,252.4,990.3,1883.2,3464.3,215.2,73.7,18.7
0.277905,987.7,190.4,1920.3,401.9,3487.9,228.2,992.3,1883.2,3465.1,215.2,73.6,18.5
0.279905,990.8,189.8,1927.6,400.9,3490.9,223.0,994.2,1883.2,3465.8,215.1,73.5,18.2
0.281905,988.5,188.1,1914.2,411.2,3506.9,235.5,995.9,1883.1,3466.4,215,73.5,17.8
0.283905,982.5,185.5,1883.3,422.1,3524.5,250.2,997.4,1883,3467.1,215,73.4,17.3
0.285905,976.4,180.9,1852.3,412.4,3524.6,256.4,998.7,1882.9,3467.7,214.9,73.3,16.8
0.287905,972.8,176.4,1839.1,386.2,3506.1,250.4,999.8,1882.7,3468.3,214.8,73.2,16.3
0.289905,972.9,175.6,1844.1,364.6,3486.2,229.0,1000.7,1882.6,3469,214.7,73.2,15.5
0.291905,976.2,178.4,1857.5,354.2,3027.1,6796.7,1001.3,1882.4,3469.6,214.6,73.1,14.7
0.293905,981.3,180.0,1870.4,352.6,3490.7,178.7,1001.7,1882.1,3470.2,214.5,73.1,14
0.295905,985.5,177.2,1877.7,358.3,3509.4,161.3,1001.8,1881.9,3470.9,214.4,73.1,13.6
0.297905,986.6,171.2,1878.0,373.0,3520.7,148.5,1001.6,1881.6,3471.6,214.3,73.1,13.9
0.299905,985.8,164.9,1876.5,387.4,3520.2,143.3,1001.1,1881.3,3472.3,214.2,73,15
0.301905,985.5,159.1,1879.5,391.7,3512.4,143.0,1000.3,1880.9,3473.1,214.1,73,16.4
0.303905,986.6,154.5,1887.8,384.9,3501.1,143.9,999.3,1880.5,3473.9,214,73,17.9
0.305905,988.8,151.1,1898.7,369.5,3487.5,142.7,997.9,1880.1,3474.8,213.9,73,19.1
0.307905,991.8,148.1,1908.5,348.4,3471.0,139.2,996.1,1879.7,3475.8,213.9,72.9,19.6
0.309905,993.0,145.6,1910.7,337.2,3456.4,139.7,994.1,1879.2,3476.9,213.8,72.9,19.6
0.311905,990.2,145.6,1903.1,349.9,3449.1,152.9,991.7,1878.7,3478,213.7,72.9,19.3
0.313905,983.7,148.6,1885.3,382.9,3454.7,185.6,989,1878.1,3479.2,213.6,72.9,18.9
0.315905,975.8,152.4,1861.1,411.8,3475.1,234.8,985.9,1877.5,3480.6,213.5,73,18.5
0.317905,969.1,155.9,1841.2,414.5,3504.7,277.7,982.6,1876.9,3482,213.4,73,18.4
0.319905,964.4,159.2,1832.5,396.0,3525.6,283.7,978.9,1876.3,3483.5,213.3,73,18.4
0.321905,961.6,162.9,1832.6,372.9,3530.1,260.1,974.8,1875.6,3485.2,213.2,73,18.4
0.323905,960.8,167.7,1838.3,356.8,3523.5,230.2,970.5,1874.8,3486.9,213.1,73.1,18.4
0.325905,961.1,173.3,1846.1,351.3,3513.7,208.9,965.9,1874.1,3488.8,213,73.1,18.5
0.327905,960.9,178.9,1851.9,352.0,3504.8,200.4,960.9,1873.3,3490.8,212.9,73.1,18.6
0.329905,959.3,183.3,1853.4,350.5,3498.4,203.5,955.7,1872.4,3492.9,212.8,73.1,18.7
0.331905,956.5,186.7,1851.3,343.4,3496.0,212.8,950.2,1871.5,3495.1,212.7,73.1,18.8
0.333905,953.2,189.2,1847.7,334.4,3501.1,220.4,944.4,1870.6,3497.5,212.6,73.1,19
0.335905,948.8,191.1,1843.9,328.0,3513.3,219.7,938.4,1869.7,3499.9,212.4,73.1,19.1
0.337905,944.1,193.8,1844.5,319.1,3524.3,209.2,932.1,1868.7,3502.5,212.2,73.1,19.3
0.339905,940.9,197.8,1852.1,302.2,3526.9,193.6,925.7,1867.7,3505.1,212.1,73,19.5
0.341905,938.7,202.0,1861.5,279.2,3520.3,177.4,919,1866.7,3507.9,211.9,72.9,19.8
0.343905,935.9,203.8,1867.5,258.2,3506.3,162.6,912.2,1865.6,3510.7,211.7,72.9,19.9
0.345905,930.8,201.9,1869.5,243.9,3490.6,149.2,905.2,1864.5,3513.6,211.4,72.7,19.7
0.347905,921.8,196.9,1869.2,236.7,3482.9,139.6,898.1,1863.4,3516.6,211.2,72.6,19
0.349905,909.7,189.9,1867.2,236.7,3490.9,138.1,890.9,1862.3,3519.7,211,72.6,17.6
0.351905,897.3,181.6,1865.1,241.4,3511.6,140.7,883.6,1861.2,3522.8,210.7,72.5,15.9
0.353905,888.8,175.2,1867.7,249.3,3533.5,139.5,876.3,1860,3526,210.4,72.4,14.2
0.355905,885.0,172.9,1878.1,261.6,3545.5,135.2,868.9,1858.9,3529.2,210.1,72.4,12.6
0.357905,884.2,173.9,1894.5,275.0,3545.0,134.8,861.5,1857.7,3532.5,209.8,72.4,11.5
0.359905,884.4,176.5,1907.8,285.0,3538.4,139.4,854.1,1856.6,3535.7,209.5,72.3,10.7
0.361905,884.0,180.1,1912.5,296.2,3535.9,143.3,846.8,1855.4,3539,209.2,72.1,10
0.363905,881.0,183.7,1907.0,313.0,3541.0,144.6,839.6,1854.3,3542.2,208.9,71.9,9.5
0.365905,873.3,185.5,1892.7,329.1,3547.8,147.7,832.4,1853.2,3545.4,208.6,71.7,9.3
0.367905,861.1,184.8,1876.2,333.7,3551.2,156.5,825.4,1852,3548.6,208.3,71.4,9.4
0.369905,847.1,181.4,1865.8,328.3,3550.8,170.1,818.5,1850.9,3551.7,208,71.3,9.9
0.371905,833.3,173.3,1860.6,322.4,3547.1,189.1,811.8,1849.9,3554.8,207.7,71.2,10.6
0.373905,822.2,161.1,1856.5,321.0,3542.1,215.3,805.3,1848.8,3557.8,207.4,71.2,11.5
0.375905,815.1,148.5,1851.2,323.1,3541.8,254.4,799,1847.8,3560.7,207.1,71.3,12.3
0.377905,811.1,138.7,1845.4,326.0,3554.4,313.8,793,1846.9,3563.5,206.8,71.5,13.1
0.379905,807.9,132.0,1839.8,327.6,3581.6,386.5,787.2,1845.9,3566.2,206.5,71.6,13.9
0.381905,802.7,125.9,1831.6,327.6,3617.1,456.7,781.7,1845.1,3568.8,206.3,71.7,14.8
0.383905,794.9,119.9,1821.3,325.6,3634.9,1875.1,776.6,1844.2,3571.2,206,71.7,15.6
0.385905,785.8,115.9,1816.4,323.1,3618.8,1881.5,771.7,1843.4,3573.5,205.8,71.6,16.2
0.387905,776.6,114.5,1822.6,319.2,3596.9,368.2,767.3,1842.7,3575.6,205.6,71.6,16.4
0.389905,767.3,113.3,1833.0,303.5,3577.3,287.8,763.2,1842,3577.5,205.3,71.6,16.3
0.391905,756.5,110.4,1837.8,272.1,3573.6,246.5,759.5,1841.4,3579.3,205.2,71.5,16
0.393905,744.5,108.3,1837.4,234.4,3580.6,238.5,756.2,1840.9,3580.8,205,71.5,15.6
0.395905,732.9,110.5,1837.5,200.7,3586.1,247.9,753.3,1840.4,3582.2,204.8,71.4,15.2
0.397905,721.4,118.4,1838.6,177.6,3576.3,257.0,750.8,1840,3583.4,204.7,71.3,15
0.399905,709.8,128.6,1837.9,170.9,3561.2,262.8,748.8,1839.7,3584.4,204.5,71.2,15
0.401905,696.8,139.6,1835.5,181.6,3555.6,275.8,747.2,1839.4,3585.1,204.4,71.1,15
0.403905,682.3,151.5,1832.5,209.3,3555.5,298.8,746,1839.2,3585.7,204.3,71,14.9
0.405905,666.2,162.8,1829.1,248.6,3546.4,329.7,745.4,1839.1,3586,204.1,70.9,14.5
0.407905,647.3,170.8,1824.7,287.3,3517.6,369.2,745.1,1839.1,3586.1,204,70.7,13.6
