time,f1,b1,f2,b2,f3,b3,f1p,f2p,f3p,f0,intensity,harmonicity
0.025497,485.0,25.4,2592.0,178.8,3342.5,248.6,481.1,2674,3369.2,253.6,72.6,14
0.027497,485.3,24.5,2609.6,197.1,3364.2,242.1,481.5,2675.1,3372.5,253.6,72.8,16.7
0.029497,485.3,24.3,2624.7,220.7,3382.1,243.6,482.1,2676.8,3377.8,253.6,72.9,19
0.031497,485.5,24.7,2642.3,246.6,3398.6,245.9,482.9,2679.2,3385.2,253.6,73.1,21.1
0.033497,486.0,25.3,2661.9,275.4,3413.9,246.4,483.9,2682.2,3394.3,253.5,73.2,22.9
0.035497,486.8,25.8,2681.0,310.1,3426.3,243.8,485.1,2685.8,3405,253.5,73.3,24.3
0.037497,487.8,26.3,2698.2,348.4,3435.5,237.4,486.4,2689.7,3416.9,253.4,73.4,25.3
0.039497,488.9,26.7,2714.5,389.9,3444.1,233.3,487.8,2694,3429.9,253.4,73.5,25.7
0.041497,489.6,26.4,2726.0,425.6,3453.2,242.5,489.3,2698.6,3443.5,253.3,73.6,25.8
0.043497,490.0,25.6,2729.1,431.7,3463.3,259.3,490.8,2703.4,3457.6,253.2,73.7,25.6
0.045497,490.5,25.2,2729.6,414.5,3474.0,274.0,492.3,2708.2,3471.6,253.2,73.8,25.5
0.047497,491.1,25.1,2737.8,406.0,3484.8,289.2,493.7,2712.9,3485.3,253.1,73.9,25.6
0.049497,491.9,25.2,2760.9,408.0,3498.5,309.1,495,2717.6,3498.3,253,74.1,25.8
0.051497,492.6,25.4,2792.2,395.3,3515.2,326.1,496.3,2721.9,3510.3,252.8,74.2,26
0.053497,493.2,25.4,2810.5,356.3,3529.2,329.6,497.3,2725.9,3521.1,252.7,74.3,26.1
0.055497,493.4,25.3,2808.5,312.4,3534.3,324.3,498.2,2729.4,3530.4,252.6,74.5,26.1
0.057497,493.7,25.3,2797.1,282.1,3532.8,322.2,498.9,2732.5,3537.9,252.4,74.7,25.9
0.059497,494.2,25.4,2781.4,269.2,3528.2,323.0,499.3,2734.9,3543.5,252.2,74.8,25.5
0.061497,494.9,25.5,2758.9,275.3,3519.3,309.6,499.6,2736.7,3547,252,75,24.9
0.063497,495.5,25.0,2729.0,291.3,3507.9,267.0,499.5,2737.7,3548.4,251.8,75.2,24.4
0.065497,495.9,24.1,2703.0,300.5,3500.7,215.0,499.3,2738.1,3547.5,251.6,75.5,24.1
0.067497,496.3,23.2,2692.9,296.0,3498.8,179.8,498.8,2737.6,3544.5,251.4,75.7,24.1
0.069497,496.6,22.1,2694.5,276.4,3499.3,162.4,498.1,2736.4,3539.4,251.1,75.9,24.5
0.071497,496.9,20.9,2697.1,241.2,3500.5,158.3,497.3,2734.4,3532.2,250.8,76.1,25
0.073497,497.1,19.7,2695.2,197.2,3501.6,160.9,496.3,2731.6,3523.2,250.5,76.4,25.6
0.075497,497.3,18.6,2691.5,156.8,3502.3,164.9,495.2,2728,3512.5,250.2,76.6,26
0.077497,497.4,17.6,2689.3,129.0,3502.5,168.3,494.1,2723.7,3500.2,249.9,76.9,26
0.079497,497.3,16.3,2689.6,113.7,3502.5,174.0,492.9,2718.7,3486.8,249.6,77.2,25.7
0.081497,497.1,15.0,2691.0,108.1,3500.9,180.5,491.8,2713.1,3472.3,249.2,77.5,25.2
0.083497,496.9,13.7,2690.6,108.9,3492.9,186.0,490.8,2706.8,3457.1,248.8,77.8,24.6
0.085497,496.6,12.4,2686.8,121.5,3478.5,199.4,490,2699.9,3441.3,248.4,78.1,24.2
0.087497,496.1,11.2,2680.3,153.9,3461.1,226.9,489.4,2692.5,3425.4,248,78.4,24.1
0.089497,495.5,10.0,2671.5,211.6,3442.9,264.2,489,2684.5,3409.4,247.6,78.7,24.2
0.091497,495.3,9.1,2663.3,276.5,3429.1,293.9,489,2676.1,3393.6,247.1,79,24.5
0.093497,495.4,8.6,2660.8,319.7,3422.9,314.1,489.3,2667.2,3378.2,246.6,79.2,24.8
0.095497,495.8,8.7,2665.1,327.7,3421.6,341.5,490.1,2657.8,3363.4,246.1,79.4,24.8
0.097497,496.3,9.1,2667.5,303.3,3416.6,385.7,491.4,2648,3349.2,245.6,79.5,24.4
0.099497,496.8,9.8,2660.3,265.3,3391.8,445.6,493.1,2637.8,3335.8,245,79.6,23.6
0.101497,497.3,10.8,2644.7,240.9,3333.5,487.2,495.4,2627.1,3323.1,244.4,79.5,22.6
0.103497,497.7,12.3,2622.0,230.0,3265.3,455.2,498.3,2616,3311.3,243.8,79.3,21.5
0.105497,498.3,14.5,2598.1,214.5,3233.3,375.7,501.7,2604.3,3300.1,243.2,79,20.4
0.107497,499.1,17.8,2583.3,196.4,3232.5,315.9,505.7,2592.2,3289.7,242.6,78.6,19.3
0.109497,500.6,22.8,2575.9,180.8,3238.4,277.2,510.2,2579.5,3279.8,241.9,78,18
0.111497,503.2,30.6,2572.3,167.9,3239.9,249.6,515.4,2566.2,3270.3,241.2,77.3,16.6
0.113497,508.1,41.9,2569.4,159.1,3237.0,229.2,521,2552.3,3261.1,240.5,76.6,15.4
0.115497,515.6,56.1,2564.9,157.2,3233.3,218.5,527.2,2537.8,3251.9,239.8,75.9,14.7
0.117497,524.9,69.6,2556.9,162.5,3231.3,218.2,533.8,2522.5,3242.6,239.1,75.2,14.6
0.119497,535.1,79.7,2541.7,171.8,3229.9,224.3,540.9,2506.4,3233,238.4,74.7,15.3
0.121497,544.2,84.3,2517.8,180.6,3225.7,232.8,548.4,2489.6,3222.9,237.6,74.4,16.5
0.123497,551.8,84.5,2487.5,187.6,3215.0,245.0,556.1,2472,3212.1,236.9,74.4,17.7
0.125497,558.3,82.2,2456.3,195.1,3196.9,266.1,564.2,2453.5,3200.5,236.1,74.4,18.5
0.127497,564.4,78.9,2429.9,205.3,3175.1,297.5,572.4,2434.2,3187.9,235.3,74.6,18.5
0.129497,571.9,75.8,2406.9,215.4,3152.4,334.0,580.8,2414.1,3174.3,234.5,74.7,17.9
0.131497,582.0,73.8,2386.0,216.9,3132.6,357.6,589.2,2393.3,3159.7,233.7,74.9,16.9
0.133497,595.4,72.1,2365.3,209.2,3116.4,360.6,597.6,2371.6,3144,232.9,75,15.7
0.135497,611.2,68.3,2344.1,201.8,3103.0,356.7,605.9,2349.3,3127.2,232.1,75.1,14.7
0.137497,627.0,60.9,2322.3,203.0,3092.4,365.0,614,2326.3,3109.6,231.3,75.2,14
0.139497,642.6,50.3,2296.8,211.4,3081.1,394.4,622,2302.9,3091.3,230.4,75.3,13.3
0.141497,656.0,39.9,2268.8,217.4,3064.8,432.7,629.6,2279,3072.4,229.6,75.4,12.7
0.143497,665.8,32.5,2243.0,216.8,3047.2,454.3,637,2254.8,3053.3,228.8,75.6,12.3
0.145497,671.1,28.7,2222.7,216.9,3040.2,449.4,643.9,2230.5,3034.2,227.9,75.7,12.1
0.147497,672.7,28.0,2206.3,223.6,3044.9,427.3,650.4,2206.1,3015.5,227.1,75.9,12.2
0.149497,671.9,29.2,2187.8,237.6,3051.4,401.2,656.4,2181.9,2997.6,226.3,76,12.9
0.151497,670.0,31.1,2163.2,258.1,3052.4,387.4,662,2158,2980.9,225.4,76.1,13.7
0.153497,667.8,33.2,2131.6,281.6,3046.4,390.7,666.9,2134.6,2965.7,224.6,76,14.6
0.155497,665.9,35.3,2095.5,301.0,3034.1,409.1,671.4,2111.9,2952.7,223.7,75.9,15.3
0.157497,664.7,37.5,2061.4,307.8,3016.7,435.5,675.2,2090,2942,222.8,75.7,15.4
0.159497,664.4,40.3,2031.4,299.6,2993.2,462.7,678.5,2069,2934.3,222,75.3,15.1
0.161497,664.7,43.9,2007.2,283.3,2968.8,483.2,681.2,2049.2,2929.7,221.1,74.9,14.6
0.163497,665.2,48.7,1987.7,268.4,2950.7,497.1,683.4,2030.7,2928.8,220.3,74.4,13.9
0.165497,665.5,55.5,1973.1,262.4,2939.2,509.5,685,2013.6,2931.7,219.4,73.9,13.4
0.167497,665.3,63.8,1963.9,272.1,2925.8,536.1,686.1,1998,2938.8,218.6,73.5,13.2
0.169497,664.2,73.4,1961.6,304.3,2903.3,599.4,686.7,1984,2950.1,217.7,73,13.2
0.171497,663.3,84.2,1976.5,351.8,2886.9,695.9,686.8,1971.7,2965.9,216.9,72.7,13.3
0.173497,663.6,93.6,2004.6,399.3,2873.1,823.1,686.5,1961.1,2986.1,216.1,72.3,13.3
0.175497,665.6,98.8,2024.4,433.8,2852.5,943.4,685.7,1952.2,3010.6,215.3,72.1,13.3
0.177497,669.7,100.6,2021.9,452.3,2840.1,1035.8,684.7,1945.1,3039.3,214.5,71.9,13
0.179497,676.1,102.3,2003.7,432.3,2897.8,1128.0,683.3,1939.6,3072.1,213.7,71.6,12.4
0.181497,683.9,107.2,1984.5,352.5,3085.5,1075.4,681.6,1935.8,3108.5,213,71.3,11.6
0.183497,691.4,116.3,1968.3,264.5,3222.5,849.6,679.8,1933.5,3148.2,212.2,71,10.9
0.185497,697.0,129.1,1958.1,211.6,3297.4,707.5,677.7,1932.7,3190.7,211.5,70.7,10.4
0.187497,699.4,143.0,1953.6,192.3,3347.2,632.5,675.6,1933.2,3235.5,210.9,70.3,10.4
0.189497,698.2,154.3,1952.3,192.7,3380.9,592.7,673.3,1934.8,3282,210.2,70.1,10.8
0.191497,693.4,157.4,1950.5,201.2,3400.4,587.0,671,1937.5,3329.5,209.6,69.9,11.5
0.193497,687.3,152.8,1943.0,209.6,3419.4,607.6,668.7,1941,3377.4,209,69.8,12.2
0.195497,683.6,147.1,1927.6,215.9,3457.0,621.0,666.4,1945.1,3425,208.4,69.8,12.8
0.197497,683.5,145.3,1907.5,219.7,3511.5,594.1,664.2,1949.7,3471.4,207.8,69.7,13
0.199497,685.6,147.9,1889.3,219.2,3564.0,535.1,662.1,1954.6,3516.1,207.3,69.5,12.8
0.201497,688.6,154.6,1884.8,212.7,3595.9,486.9,660.1,1959.5,3558.3,206.8,69.3,12.6
0.203497,691.1,164.5,1896.4,202.9,3605.2,472.3,658.3,1964.4,3597.3,206.4,69,12.3
0.205497,690.2,173.9,1915.1,199.5,3593.8,487.0,656.7,1969,3632.5,205.9,68.6,12.2
0.207497,682.1,180.3,1932.3,214.2,3579.0,508.8,655.3,1973.1,3663.4,205.5,68.2,12.4
0.209497,666.1,184.0,1949.8,250.4,3586.0,540.3,654.1,1976.7,3689.3,205.2,67.8,12.8
0.211497,645.0,185.5,1972.5,295.0,3619.8,611.8,653.2,1979.6,3710,204.8,67.4,13.4
0.213497,618.7,186.1,2005.8,330.6,3683.6,737.6,652.5,1981.8,3725,204.5,67,14
0.215497,587.9,182.4,2049.7,348.2,3775.4,854.3,652.1,1983.1,3734.1,204.2,66.7,14.5
0.217497,559.0,172.0,2094.6,351.7,3849.3,828.6,651.9,1983.6,3737.2,203.9,66.5,14.8
