time,f1,b1,f2,b2,f3,b3,f1p,f2p,f3p,f0,intensity,harmonicity
0.025528,639.3,55.6,2253.9,152.5,2923.0,1625.6,641.4,2233.8,2996.6,215.7,74,18.8
0.027528,643.5,54.2,2252.9,163.5,2833.3,1421.3,643.2,2234.8,2988,215.6,74,18.4
0.029528,647.4,54.1,2246.4,165.6,2834.0,1283.2,646.1,2236.2,2973.9,215.5,73.9,18
0.031528,651.1,55.8,2239.8,157.7,2937.3,1176.3,650.2,2238,2954.8,215.4,73.8,17.7
0.033528,654.9,59.4,2237.9,149.1,3074.0,883.3,655.4,2240,2931.3,215.2,73.7,17.4
0.035528,659.4,65.3,2241.0,145.9,3046.8,715.5,661.6,2242,2904.1,215.1,73.5,17.1
0.037528,665.4,72.9,2243.6,149.1,3017.7,717.3,668.7,2243.6,2873.9,215,73.3,17
0.039528,673.2,81.2,2239.9,156.7,2955.4,752.9,676.7,2244.7,2841.6,214.8,73,17
0.041528,682.3,89.7,2228.7,164.6,2866.4,759.1,685.5,2245,2808.1,214.7,72.8,17
0.043528,692.8,97.3,2216.4,168.8,2776.0,730.9,694.8,2244.3,2774.3,214.5,72.6,17.2
0.045528,704.7,103.4,2211.0,168.9,2706.2,697.4,704.7,2242.3,2741,214.3,72.5,17.4
0.047528,717.5,107.7,2214.7,167.2,2666.8,681.7,714.9,2239,2709.2,214.2,72.4,17.5
0.049528,730.6,109.6,2222.1,168.4,2644.9,670.3,725.3,2234.3,2679.4,214,72.3,17.7
0.051528,742.9,108.9,2228.3,178.0,2621.6,650.3,735.8,2228,2652.3,213.8,72.2,17.9
0.053528,753.4,106.9,2230.2,196.5,2590.7,622.6,746.2,2220.4,2628.4,213.7,72.2,18.1
0.055528,762.4,103.7,2224.9,217.0,2558.0,579.4,756.3,2211.4,2608.1,213.5,72.1,18.2
0.057528,770.3,99.6,2213.1,226.9,2539.7,528.7,766,2201.3,2591.4,213.3,72.1,18.2
0.059528,777.7,95.3,2201.0,220.2,2544.2,488.8,775.3,2190.3,2578.4,213.2,72.1,18.1
0.061528,784.8,92.5,2193.6,209.1,2558.8,466.3,783.8,2178.7,2569.1,213,72.1,17.7
0.063528,791.0,92.7,2189.6,209.5,2565.3,465.7,791.6,2166.9,2563.1,212.8,72,17.4
0.065528,795.8,96.2,2184.3,226.5,2560.2,483.0,798.5,2155.1,2560.3,212.7,72,17.1
0.067528,799.2,100.8,2170.8,252.3,2557.0,494.3,804.5,2143.8,2560,212.5,71.9,16.9
0.069528,802.1,103.5,2144.6,267.8,2570.9,477.4,809.6,2133.3,2561.9,212.4,71.8,17
0.071528,805.1,104.2,2114.6,265.4,2593.9,447.3,813.6,2123.9,2565.5,212.2,71.8,17.2
0.073528,808.4,105.8,2093.4,259.4,2608.3,435.2,816.7,2115.8,2570.1,212.1,71.7,17.5
0.075528,811.5,110.1,2084.6,259.8,2610.4,449.3,818.7,2109.5,2575.2,212,71.6,17.9
0.077528,814.3,115.9,2085.2,263.1,2610.6,468.9,819.9,2104.9,2580.4,211.9,71.5,18.2
0.079528,817.1,120.9,2089.2,263.3,2617.7,468.2,820.2,2102.3,2585.2,211.7,71.4,18.7
0.081528,819.8,123.8,2092.5,261.2,2625.3,449.2,819.8,2101.7,2589.2,211.6,71.4,19.2
0.083528,821.7,125.5,2095.7,262.3,2624.2,434.4,818.7,2102.9,2592.2,211.5,71.3,19.7
0.085528,822.3,127.0,2100.3,269.1,2611.3,435.7,817.1,2106,2594,211.4,71.3,20.1
0.087528,821.9,129.0,2106.6,277.0,2588.0,448.3,815.1,2110.8,2594.5,211.4,71.3,20.4
0.089528,820.8,130.9,2114.5,280.9,2560.6,467.1,812.8,2116.9,2593.7,211.3,71.3,20.5
0.091528,819.0,132.9,2124.4,282.9,2537.3,497.9,810.3,2124.3,2591.7,211.2,71.3,20.5
0.093528,816.0,135.2,2135.0,285.7,2525.0,546.3,807.6,2132.5,2588.7,211.2,71.3,20.4
0.095528,811.9,137.4,2142.8,289.1,2528.9,603.7,805,2141.3,2585,211.1,71.3,20.3
0.097528,807.2,138.8,2147.8,294.5,2546.8,660.3,802.4,2150.3,2580.8,211.1,71.3,20.3
0.099528,802.2,140.2,2156.7,303.0,2566.8,725.4,799.9,2159.3,2576.5,211,71.4,20.2
0.101528,796.9,142.9,2177.3,308.5,2582.0,829.2,797.4,2168.1,2572.4,211,71.4,20.2
0.103528,791.0,146.2,2205.4,299.0,2600.5,970.1,795,2176.4,2568.8,211,71.5,20.2
0.105528,785.7,146.4,2225.4,285.3,2612.1,1039.6,792.7,2184,2566.2,210.9,71.5,20.3
0.107528,782.2,140.5,2229.9,295.3,2573.0,935.2,790.3,2190.8,2564.8,210.9,71.5,20.4
0.109528,780.2,130.8,2215.2,324.9,2539.0,734.7,787.7,2196.8,2564.7,210.9,71.5,20.7
0.111528,778.6,121.9,2190.6,329.9,2551.1,590.3,785,2202,2566.2,210.9,71.5,21.2
0.113528,777.1,114.9,2177.5,311.4,2576.1,523.7,781.9,2206.4,2569.5,210.9,71.5,21.7
0.115528,775.3,109.1,2176.2,291.7,2593.3,499.2,778.4,2210.2,2574.5,210.9,71.5,22.1
0.117528,772.8,104.0,2182.2,278.3,2597.8,499.3,774.4,2213.5,2581.1,210.9,71.5,22.1
0.119528,769.5,100.2,2192.5,270.4,2597.1,514.8,769.7,2216.5,2589.5,211,71.5,21.7
0.121528,765.4,98.3,2204.7,263.5,2605.4,540.6,764.2,2219.4,2599.3,211,71.4,20.9
0.123528,759.9,99.4,2216.8,256.2,2629.2,580.9,758,2222.4,2610.3,211,71.4,20
0.125528,752.7,103.6,2227.7,247.4,2666.5,637.4,750.9,2225.6,2622.5,211,71.4,19.1
0.127528,744.3,107.1,2234.0,237.5,2698.6,670.6,743,2229.2,2635.4,211,71.4,18.7
0.129528,736.5,105.2,2236.8,232.2,2689.0,658.0,734.3,2233.4,2648.9,211,71.4,18.7
0.131528,728.7,99.9,2243.0,228.7,2658.4,621.9,724.8,2238.2,2662.7,211,71.4,19
0.133528,720.0,94.6,2253.3,223.6,2635.3,586.2,714.7,2243.7,2676.4,211,71.4,19.4
0.135528,709.8,90.7,2264.1,218.6,2623.9,566.2,704.1,2249.9,2689.9,211.1,71.4,19.8
0.137528,698.1,88.6,2273.1,213.5,2623.8,570.6,693.1,2256.7,2702.9,211.1,71.4,19.8
0.139528,684.7,87.9,2279.7,203.2,2642.7,606.8,682.1,2264,2715.2,211.1,71.4,19.5
0.141528,670.2,87.4,2284.1,183.5,2691.4,667.2,671,2271.6,2726.6,211.1,71.4,19
0.143528,656.5,83.9,2285.8,161.5,2749.3,697.1,660.3,2279.3,2737.1,211.1,71.5,18.4
0.145528,646.1,75.7,2285.5,144.6,2765.9,656.5,650.2,2286.9,2746.5,211.1,71.6,17.7
0.147528,638.3,65.9,2286.9,127.8,2767.2,577.3,640.8,2294.1,2754.6,211.1,71.7,17.1
0.149528,631.8,57.3,2292.2,111.5,2774.0,516.8,632.4,2300.7,2761.6,211.1,71.8,16.6
0.151528,626.1,50.8,2299.4,98.1,2781.5,491.4,625.3,2306.5,2767.4,211.1,72,16.1
0.153528,620.9,46.4,2306.0,87.4,2788.9,499.5,619.5,2311.3,2771.8,211.1,72.1,15.6
0.155528,616.0,43.5,2310.7,78.7,2795.3,536.8,615.2,2314.8,2775,211,72.2,15.1
0.157528,611.4,41.7,2313.5,72.0,2795.1,597.1,612.7,2317,2776.9,211,72.2,14.6
0.159528,607.2,40.7,2315.4,67.8,2781.3,671.9,611.8,2317.7,2777.5,211,72.2,14.3
