time,f1,b1,f2,b2,f3,b3,f1p,f2p,f3p,f0,intensity,harmonicity
0.025190,355.1,79.0,2657.0,479.1,3449.3,634.9,367.7,2722.9,3538.2,272.4,71.5,19.4
0.027190,357.8,86.3,2703.0,454.4,3452.3,638.8,367.8,2723.4,3538.3,272.1,71.4,21.2
0.029190,360.6,94.3,2725.5,364.1,3459.3,587.1,368,2724.3,3538.6,271.8,71.4,22.1
0.031190,362.8,100.2,2731.1,271.0,3475.9,545.2,368.2,2725.5,3538.9,271.5,71.4,22.5
0.033190,364.2,104.0,2729.8,200.7,3500.7,527.8,368.5,2727,3539.3,271.1,71.4,22.7
0.035190,365.4,107.5,2726.5,153.3,3530.7,523.0,368.9,2728.9,3539.9,270.7,71.4,22.9
0.037190,367.0,111.0,2723.3,123.7,3559.1,512.2,369.4,2731.1,3540.5,270.3,71.5,23.3
0.039190,368.6,113.9,2721.1,107.1,3578.3,485.7,369.9,2733.6,3541.2,269.9,71.5,23.7
0.041190,370.0,115.9,2720.1,99.5,3587.9,449.3,370.5,2736.4,3542,269.5,71.5,24.2
0.043190,371.3,117.9,2719.7,98.1,3591.9,413.9,371.2,2739.4,3542.9,269.1,71.6,24.5
0.045190,373.0,120.7,2719.6,102.4,3590.4,385.3,371.9,2742.8,3543.9,268.6,71.6,24.7
0.047190,374.5,122.9,2721.3,113.8,3582.8,367.3,372.7,2746.4,3545,268.2,71.6,24.6
0.049190,375.3,122.8,2727.6,133.1,3571.5,363.3,373.6,2750.2,3546.1,267.7,71.6,24.2
0.051190,375.7,121.2,2739.8,155.7,3562.8,371.6,374.5,2754.3,3547.2,267.3,71.7,23.6
0.053190,376.8,120.3,2756.5,174.8,3561.7,385.3,375.4,2758.6,3548.5,266.8,71.6,23
0.055190,379.0,121.7,2775.1,187.1,3567.5,398.7,376.5,2763,3549.8,266.4,71.6,22.6
0.057190,382.2,124.5,2794.5,193.8,3576.9,408.8,377.5,2767.7,3551.1,265.9,71.6,22.4
0.059190,385.0,126.6,2814.1,196.7,3588.7,412.9,378.7,2772.4,3552.5,265.4,71.5,22.3
0.061190,386.5,126.4,2831.0,195.5,3599.6,409.2,379.9,2777.3,3554,265,71.5,22.4
0.063190,387.0,125.0,2841.9,189.9,3605.3,400.5,381.1,2782.3,3555.4,264.5,71.4,22.6
0.065190,387.9,125.2,2847.1,180.5,3605.2,390.8,382.3,2787.4,3556.9,264,71.3,22.8
0.067190,389.9,128.8,2848.9,169.3,3602.2,382.0,383.6,2792.6,3558.4,263.5,71.3,23.1
0.069190,393.0,135.5,2847.1,159.3,3595.9,370.8,385,2797.8,3559.9,263.1,71.3,23.6
0.071190,396.5,142.8,2839.9,152.0,3583.4,346.3,386.4,2803,3561.5,262.6,71.2,24.2
0.073190,398.2,147.5,2828.7,146.4,3568.1,304.6,387.8,2808.2,3563,262.2,71.2,24.7
0.075190,396.7,148.6,2818.6,142.1,3556.3,262.2,389.2,2813.5,3564.5,261.7,71.2,25.1
0.077190,393.0,148.0,2812.6,139.6,3547.0,233.8,390.7,2818.6,3566,261.2,71.2,25.2
0.079190,389.5,147.9,2811.0,136.9,3536.7,218.5,392.1,2823.8,3567.5,260.8,71.2,25.1
0.081190,387.5,148.6,2814.1,131.8,3526.3,209.1,393.6,2828.9,3569,260.3,71.2,24.8
0.083190,386.5,148.7,2821.1,124.9,3521.0,200.4,395.1,2833.9,3570.5,259.9,71.2,24.4
0.085190,387.0,148.2,2828.8,120.3,3523.9,192.9,396.7,2838.8,3571.9,259.4,71.1,24.2
0.087190,390.7,148.3,2833.2,121.2,3531.4,189.4,398.2,2843.6,3573.3,258.9,71.1,24.1
0.089190,398.5,149.3,2832.3,129.6,3539.8,191.5,399.7,2848.3,3574.7,258.5,71.1,24.2
0.091190,407.2,149.4,2826.4,144.6,3550.3,196.3,401.2,2852.8,3576,258,71.1,24.3
0.093190,412.5,149.3,2818.8,162.2,3563.7,199.6,402.8,2857.2,3577.2,257.5,71.1,24.5
0.095190,413.8,149.7,2814.6,178.3,3575.6,200.7,404.3,2861.5,3578.4,257.1,71.1,24.6
0.097190,412.8,149.5,2816.5,194.3,3582.2,199.6,405.8,2865.6,3579.6,256.6,71.1,24.6
0.099190,411.8,148.4,2823.5,213.0,3584.0,194.5,407.3,2869.5,3580.7,256.1,71.1,24.6
0.101190,411.2,146.6,2834.2,231.7,3584.1,186.8,408.7,2873.3,3581.7,255.6,71.1,24.5
0.103190,410.7,144.8,2849.9,242.3,3584.4,183.6,410.2,2876.9,3582.7,255.1,71.1,24.5
0.105190,409.4,143.3,2872.3,240.2,3586.3,191.0,411.6,2880.3,3583.6,254.6,71.1,24.4
0.107190,407.3,142.3,2897.5,228.5,3590.7,206.9,413,2883.5,3584.4,254.1,71.1,24.4
0.109190,405.0,141.4,2917.7,213.6,3596.4,223.1,414.3,2886.6,3585.2,253.6,71.2,24.5
0.111190,404.1,140.4,2929.1,199.6,3599.0,231.4,415.6,2889.5,3585.9,253.1,71.2,24.5
0.113190,407.3,138.9,2930.8,186.9,3593.0,227.2,416.9,2892.2,3586.5,252.6,71.2,24.6
0.115190,414.7,134.8,2925.0,174.2,3580.3,212.0,418.1,2894.8,3587,252,71.3,24.6
0.117190,422.5,127.8,2916.8,161.5,3570.1,194.9,419.3,2897.2,3587.5,251.5,71.3,24.7
0.119190,427.4,121.8,2911.0,149.6,3566.2,185.0,420.5,2899.4,3587.9,250.9,71.4,24.8
0.121190,429.2,119.5,2910.5,137.4,3566.9,184.9,421.6,2901.5,3588.2,250.4,71.4,24.9
0.123190,428.4,120.1,2915.2,125.5,3571.9,191.7,422.6,2903.4,3588.5,249.8,71.5,24.9
0.125190,426.4,121.2,2922.1,114.6,3582.6,199.1,423.6,2905.3,3588.7,249.2,71.5,24.9
0.127190,424.9,120.7,2927.0,105.3,3595.8,201.1,424.5,2906.9,3588.8,248.7,71.5,24.8
0.129190,424.0,118.3,2928.2,98.2,3606.0,198.2,425.4,2908.5,3588.9,248.1,71.4,24.5
0.131190,422.0,116.9,2927.2,94.0,3612.5,195.7,426.2,2910,3588.9,247.5,71.4,24.1
0.133190,418.3,117.8,2925.1,92.7,3615.2,194.7,426.9,2911.3,3588.8,246.9,71.2,23.7
0.135190,414.6,119.7,2922.2,94.9,3613.7,191.0,427.6,2912.6,3588.6,246.3,71.1,23.4
0.137190,412.3,121.5,2918.3,101.5,3608.9,181.3,428.2,2913.8,3588.4,245.7,70.9,23.2
0.139190,412.2,122.7,2912.0,112.6,3602.3,169.2,428.8,2915,3588.2,245,70.7,23.1
0.141190,414.3,123.3,2902.0,126.1,3595.1,160.6,429.3,2916,3587.9,244.4,70.4,23.1
0.143190,418.0,122.7,2889.5,136.8,3587.7,155.9,429.7,2917.1,3587.5,243.8,70.2,23.1
0.145190,422.4,120.5,2880.8,140.6,3581.6,151.3,430,2918.1,3587.1,243.1,70,23
0.147190,426.3,117.8,2879.9,139.8,3581.1,142.6,430.3,2919.1,3586.6,242.5,69.7,22.7
0.149190,428.6,116.6,2885.1,140.3,3589.2,130.6,430.5,2920,3586,241.8,69.5,22.4
0.151190,430.1,116.2,2889.8,145.6,3598.7,118.5,430.7,2921,3585.5,241.2,69.2,22
0.153190,432.4,114.5,2890.1,153.4,3601.7,109.5,430.8,2921.9,3584.9,240.5,69,21.6
0.155190,436.3,110.2,2888.8,159.1,3597.4,104.8,430.8,2922.8,3584.2,239.9,68.8,21.1
0.157190,440.8,103.7,2890.9,162.9,3588.6,105.1,430.8,2923.8,3583.5,239.2,68.6,20.6
0.159190,444.1,96.2,2900.0,169.3,3578.0,110.9,430.7,2924.8,3582.8,238.6,68.5,20
0.161190,445.3,90.3,2913.4,179.0,3568.1,120.4,430.6,2925.8,3582,237.9,68.4,19.3
0.163190,444.9,86.1,2926.0,187.6,3560.4,130.6,430.4,2926.8,3581.3,237.3,68.3,18.7
0.165190,444.3,83.3,2934.0,189.8,3555.9,140.4,430.1,2927.9,3580.4,236.6,68.2,18.3
0.167190,444.2,81.3,2937.9,184.8,3554.2,151.6,429.8,2928.9,3579.6,236,68.2,18.2
0.169190,444.5,79.6,2940.2,176.1,3553.3,164.5,429.5,2930,3578.7,235.4,68.1,18.4
0.171190,444.7,78.3,2942.3,167.5,3551.5,175.6,429.1,2931.2,3577.8,234.7,68.1,18.8
0.173190,443.7,77.7,2946.4,159.7,3550.0,184.7,428.6,2932.4,3576.9,234.1,68.1,19.3
0.175190,440.7,78.7,2953.7,151.2,3553.0,193.8,428.1,2933.6,3576,233.5,68.1,19.7
0.177190,436.1,81.7,2963.5,138.8,3563.9,199.6,427.6,2934.8,3575.1,232.9,68.2,19.9
0.179190,430.3,86.9,2972.2,123.7,3580.2,196.8,427,2936,3574.1,232.3,68.2,20
0.181190,423.4,93.8,2976.4,111.3,3593.4,189.7,426.4,2937.3,3573.1,231.7,68.4,20
0.183190,415.7,101.1,2975.3,104.0,3598.5,186.0,425.8,2938.6,3572.1,231.1,68.5,20
0.185190,409.3,106.2,2971.0,99.4,3597.3,185.7,425.1,2939.9,3571.1,230.6,68.6,20
0.187190,406.4,107.7,2966.6,94.5,3595.6,182.7,424.4,2941.2,3570.1,230,68.7,19.9
0.189190,407.3,105.7,2963.1,89.2,3596.3,174.6,423.7,2942.5,3569.1,229.4,68.8,19.7
0.191190,409.8,101.5,2958.8,84.4,3596.5,164.9,423,2943.8,3568.1,228.9,68.9,19.5
0.193190,412.3,96.4,2953.4,81.1,3593.3,157.3,422.2,2945,3567.1,228.3,68.9,19.3
0.195190,414.5,91.3,2948.1,79.9,3586.3,151.8,421.5,2946.2,3566.1,227.8,68.8,19.1
0.197190,416.7,86.8,2944.3,81.2,3578.0,146.5,420.7,2947.4,3565,227.2,68.7,19.1
0.199190,418.7,83.3,2942.0,85.0,3571.6,141.6,419.9,2948.6,3564,226.7,68.6,19.3
0.201190,419.9,81.2,2940.8,90.3,3568.4,139.5,419.1,2949.7,3563,226.2,68.5,19.4
0.203190,420.0,80.1,2939.0,96.5,3565.7,140.8,418.3,2950.7,3561.9,225.7,68.4,19.7
0.205190,419.2,79.8,2935.4,102.8,3560.2,144.1,417.5,2951.7,3560.9,225.1,68.3,19.8
0.207190,417.4,80.1,2930.4,110.6,3552.3,147.8,416.7,2952.6,3559.9,224.6,68.3,19.9
0.209190,414.3,80.9,2926.2,120.7,3546.6,150.5,415.9,2953.4,3558.9,224.1,68.3,19.9
0.211190,410.7,82.1,2925.2,131.2,3545.5,150.7,415.1,2954,3557.9,223.6,68.3,19.9
0.213190,407.4,83.0,2928.6,139.3,3547.7,149.6,414.3,2954.6,3556.9,223.1,68.4,19.9
0.215190,405.1,82.9,2936.2,143.8,3550.6,151.3,413.5,2955.1,3555.9,222.6,68.5,19.9
0.217190,404.4,81.4,2944.6,145.8,3551.6,157.5,412.7,2955.5,3554.9,222.1,68.6,20.1
0.219190,405.6,78.8,2950.5,148.8,3548.4,167.7,412,2955.7,3553.9,221.6,68.7,20.3
0.221190,407.8,75.4,2952.4,155.4,3540.8,179.0,411.2,2955.8,3553,221.1,68.8,20.6
0.223190,409.9,72.3,2951.6,161.5,3534.0,184.5,410.5,2955.8,3552,220.6,68.8,20.8
0.225190,411.7,69.4,2951.0,160.0,3531.0,181.8,409.7,2955.7,3551.1,220.1,68.8,21
0.227190,413.4,66.8,2953.0,149.8,3529.0,177.0,409,2955.4,3550.2,219.6,68.8,21
0.229190,415.1,64.2,2957.4,137.4,3523.9,175.8,408.2,2954.9,3549.3,219.1,68.8,20.9
0.231190,416.6,62.2,2963.3,127.5,3516.7,175.7,407.5,2954.4,3548.5,218.6,68.7,20.7
0.233190,417.9,60.9,2969.5,120.8,3513.5,170.7,406.8,2953.6,3547.6,218.1,68.7,20.6
0.235190,418.8,60.4,2974.8,116.1,3517.2,161.8,406.1,2952.8,3546.8,217.6,68.6,20.4
0.237190,419.5,60.4,2977.5,111.1,3525.1,153.3,405.4,2951.8,3546.1,217,68.6,20.4
0.239190,419.5,60.5,2976.0,104.9,3533.2,149.3,404.7,2950.6,3545.3,216.5,68.6,20.5
0.241190,418.3,60.9,2971.1,98.1,3540.0,150.6,404.1,2949.3,3544.6,216,68.5,20.7
0.243190,416.0,61.4,2965.3,91.3,3545.7,154.2,403.4,2947.9,3544,215.4,68.5,20.8
0.245190,413.4,61.8,2960.5,84.7,3550.9,155.4,402.7,2946.4,3543.4,214.9,68.4,20.9
0.247190,411.1,62.3,2956.7,79.0,3556.7,153.0,402,2944.7,3542.8,214.3,68.3,20.7
0.249190,408.6,63.5,2952.4,75.5,3562.7,150.7,401.4,2942.9,3542.3,213.7,68.2,20.2
0.251190,405.0,66.3,2945.9,74.9,3567.2,153.8,400.7,2941,3541.8,213.1,68,19.6
0.253190,400.2,69.9,2938.4,76.5,3568.7,163.5,400,2939.1,3541.3,212.6,67.9,19
0.255190,394.3,73.5,2931.2,79.3,3568.1,174.6,399.4,2937,3541,212,67.8,18.5
0.257190,388.1,76.7,2925.1,82.7,3566.7,180.3,398.7,2934.8,3540.6,211.4,67.8,18.3
0.259190,382.6,79.7,2919.1,86.5,3566.3,178.7,398,2932.6,3540.3,210.7,67.8,18.3
0.261190,379.4,81.9,2912.3,90.2,3566.7,173.7,397.3,2930.3,3540.1,210.1,67.8,18.4
0.263190,379.0,82.5,2903.8,93.1,3565.6,171.5,396.6,2928,3540,209.5,67.8,18.5
0.265190,380.5,81.1,2895.6,93.9,3560.2,177.0,395.9,2925.6,3539.9,208.8,67.7,18.6
0.267190,382.2,78.1,2891.0,93.3,3550.8,191.3,395.2,2923.2,3539.8,208.2,67.6,18.7
0.269190,383.7,73.9,2890.2,93.8,3542.3,210.9,394.4,2920.8,3539.9,207.5,67.5,18.9
0.271190,384.8,68.6,2891.2,97.1,3538.7,230.6,393.7,2918.3,3540,206.9,67.4,19
0.273190,386.1,63.1,2892.4,103.1,3538.2,242.4,392.9,2915.9,3540.1,206.2,67.2,19.1
0.275190,387.7,58.7,2892.5,110.0,3536.9,238.2,392.1,2913.5,3540.4,205.5,66.9,19.1
0.277190,389.0,56.1,2891.3,115.3,3535.9,218.3,391.3,2911.1,3540.6,204.9,66.7,18.7
0.279190,389.4,54.6,2891.1,117.6,3540.0,193.1,390.5,2908.7,3541,204.2,66.5,18.1
0.281190,388.0,52.9,2895.6,118.9,3549.3,177.5,389.7,2906.4,3541.4,203.5,66.2,17.3
0.283190,385.9,49.9,2904.9,119.8,3557.3,180.6,388.8,2904.2,3541.9,202.8,66.1,16.5
0.285190,384.8,45.6,2915.7,117.4,3558.9,200.5,387.9,2902,3542.5,202.1,65.9,16
0.287190,385.5,40.9,2924.2,111.3,3554.2,227.5,387,2899.8,3543.1,201.4,65.9,15.9
0.289190,387.4,36.9,2929.3,103.0,3547.1,246.9,386.1,2897.8,3543.8,200.7,66,16.3
0.291190,389.6,34.2,2930.6,94.2,3539.9,249.1,385.2,2895.8,3544.5,200,66,16.9
0.293190,391.4,32.4,2927.4,87.1,3531.6,239.7,384.2,2894,3545.3,199.3,66.1,17.5
0.295190,391.9,31.1,2920.3,83.6,3521.3,235.3,383.2,2892.2,3546.2,198.6,66.2,18
0.297190,391.1,30.1,2912.0,82.6,3513.6,246.1,382.2,2890.5,3547.1,197.9,66.3,18.1
0.299190,389.7,29.7,2905.5,79.8,3516.6,266.0,381.2,2889,3548,197.3,66.2,18
0.301190,387.8,30.0,2900.7,73.5,3530.6,282.2,380.2,2887.5,3549.1,196.6,66.2,17.7
0.303190,385.4,30.9,2896.9,67.1,3542.5,291.2,379.2,2886.2,3550.1,195.9,66,17.3
0.305190,382.1,31.4,2894.4,63.4,3544.7,291.9,378.2,2884.9,3551.2,195.2,65.8,16.9
0.307190,378.2,31.1,2892.2,63.1,3539.2,283.6,377.1,2883.8,3552.3,194.6,65.5,16.6
0.309190,375.1,29.7,2888.1,66.2,3530.8,272.1,376.1,2882.8,3553.5,193.9,65.2,16.3
0.311190,374.3,27.7,2880.5,73.1,3524.7,266.2,375,2881.9,3554.7,193.2,65,15.9
0.313190,375.5,25.7,2870.8,83.6,3524.2,272.9,374,2881.2,3555.9,192.6,64.7,15.6
0.315190,377.2,23.9,2862.6,98.0,3531.5,294.9,372.9,2880.5,3557.1,192,64.5,15.3
0.317190,378.1,22.4,2857.1,119.4,3547.0,332.5,371.9,2879.9,3558.4,191.3,64.3,15
0.319190,377.7,21.3,2853.9,147.5,3564.0,376.6,370.8,2879.4,3559.6,190.7,64.1,14.9
0.321190,376.0,20.7,2853.2,173.7,3573.1,420.4,369.8,2879.1,3560.9,190.1,64,14.7
0.323190,373.6,20.2,2858.2,183.9,3572.1,458.2,368.8,2878.8,3562.1,189.5,63.9,14.7
0.325190,370.7,19.7,2870.7,176.3,3571.9,467.5,367.8,2878.6,3563.4,188.9,63.7,14.7
0.327190,367.9,19.2,2886.0,161.2,3581.9,432.1,366.8,2878.4,3564.6,188.4,63.7,14.8
0.329190,365.8,18.6,2898.9,146.8,3593.8,374.4,365.8,2878.4,3565.8,187.8,63.7,15.1
0.331190,364.5,18.6,2906.2,137.6,3601.2,327.8,364.9,2878.4,3567,187.3,63.7,15.5
0.333190,363.6,19.6,2908.5,133.7,3604.0,300.2,364,2878.4,3568.2,186.8,63.7,15.9
0.335190,362.4,21.5,2905.0,132.7,3601.4,296.7,363.1,2878.6,3569.3,186.3,63.8,16.3
0.337190,360.4,23.5,2896.3,129.9,3594.1,325.2,362.3,2878.7,3570.4,185.8,63.8,16.6
0.339190,357.5,24.9,2887.8,125.3,3584.9,394.2,361.5,2878.9,3571.4,185.3,63.8,17
0.341190,355.0,26.0,2882.8,122.9,3574.7,503.8,360.7,2879.1,3572.4,184.9,63.7,17.4
0.343190,353.9,26.8,2880.2,125.4,3562.7,651.4,360,2879.3,3573.4,184.5,63.6,17.7
0.345190,354.4,26.9,2877.7,133.1,3550.3,821.6,359.3,2879.6,3574.2,184.1,63.5,17.9
0.347190,355.6,26.0,2871.4,144.8,3548.6,896.5,358.7,2879.8,3575.1,183.7,63.4,18.1
0.349190,356.4,24.2,2861.1,155.4,3560.9,776.5,358.2,2880,3575.8,183.3,63.3,18.1
0.351190,356.6,22.0,2856.5,157.8,3573.0,625.3,357.6,2880.3,3576.5,182.9,63.2,18.1
0.353190,356.2,20.3,2862.2,158.8,3582.0,533.8,357.2,2880.5,3577.1,182.6,63.1,18.1
0.355190,356.0,19.5,2875.4,165.4,3589.5,471.7,356.8,2880.7,3577.7,182.2,63.1,18
0.357190,356.1,19.5,2890.7,180.0,3593.4,402.6,356.4,2880.9,3578.1,181.9,63,17.8
0.359190,356.2,19.8,2901.6,203.0,3588.9,327.9,356.2,2881,3578.5,181.7,63,17.4
0.361190,356.1,20.6,2900.8,225.3,3577.1,260.9,355.9,2881.2,3578.8,181.4,62.9,17
0.363190,355.7,22.2,2884.1,223.7,3567.1,203.5,355.8,2881.2,3579,181.1,62.8,16.6
0.365190,355.1,24.3,2858.7,192.8,3564.8,163.7,355.7,2881.3,3579.1,180.9,62.7,16.4
0.367190,354.1,26.2,2837.5,158.9,3567.5,145.5,355.7,2881.3,3579.2,180.7,62.5,16.6
