time,f1,b1,f2,b2,f3,b3,f1p,f2p,f3p,f0,intensity,harmonicity
0.026009,317.4,72.7,2815.3,140.7,3699.6,286.8,325.3,2844.8,3787.8,280.8,75.1,24
0.028009,318.5,73.2,2818.4,141.7,3715.2,308.2,325.3,2844.3,3787.5,280.7,75.2,24.9
0.030009,319.4,73.2,2823.3,143.7,3733.1,324.5,325.3,2843.4,3787,280.7,75.3,25.2
0.032009,320.0,72.3,2829.1,148.9,3748.5,340.7,325.3,2842.2,3786.2,280.6,75.4,25.1
0.034009,320.4,70.8,2834.1,157.2,3756.4,363.5,325.2,2840.6,3785.3,280.5,75.5,25
0.036009,320.6,69.9,2836.9,164.3,3756.3,384.6,325.2,2838.8,3784.2,280.5,75.6,25
0.038009,320.7,71.7,2837.5,162.4,3753.3,375.3,325.2,2836.6,3782.9,280.4,75.6,25.4
0.040009,321.0,76.2,2836.9,151.8,3753.3,340.7,325.2,2834.2,3781.4,280.3,75.7,25.8
0.042009,321.5,81.2,2835.1,139.6,3758.9,311.7,325.2,2831.5,3779.8,280.2,75.7,26.3
0.044009,322.0,84.9,2833.1,129.5,3768.4,298.0,325.2,2828.5,3778,280.2,75.8,26.6
0.046009,322.7,86.6,2831.3,120.8,3777.1,293.7,325.2,2825.4,3776,280.1,75.8,26.7
0.048009,323.4,86.7,2829.5,112.4,3780.5,290.9,325.1,2822.1,3774,280,75.8,26.6
0.050009,324.2,85.8,2826.4,102.4,3779.8,286.7,325.1,2818.6,3771.9,279.8,75.7,26.2
0.052009,325.1,84.0,2821.1,90.8,3778.1,284.3,325.1,2815,3769.6,279.7,75.7,25.7
0.054009,325.9,81.2,2813.7,78.9,3777.8,286.8,325.1,2811.3,3767.4,279.6,75.7,25.3
0.056009,326.7,78.4,2805.9,67.9,3779.6,288.8,325.1,2807.6,3765,279.5,75.6,25
0.058009,327.6,76.9,2799.6,59.4,3781.4,282.8,325.1,2803.9,3762.7,279.4,75.5,25
0.060009,328.6,76.5,2794.9,53.1,3780.7,273.5,325.1,2800.1,3760.3,279.2,75.5,25
0.062009,329.5,76.6,2791.8,49.0,3776.5,268.7,325.2,2796.4,3757.9,279.1,75.4,25.1
0.064009,330.2,76.7,2790.0,46.4,3770.8,271.9,325.2,2792.8,3755.6,278.9,75.3,25.3
0.066009,330.5,75.8,2788.8,45.1,3769.1,285.4,325.2,2789.4,3753.3,278.8,75.2,25.3
0.068009,330.2,73.4,2787.9,45.3,3775.9,310.5,325.3,2786.1,3751.1,278.6,75.1,25.2
0.070009,329.7,69.2,2787.4,47.8,3790.4,348.0,325.3,2782.9,3749,278.5,75.1,25.1
0.072009,329.1,64.3,2787.0,53.2,3805.8,396.7,325.4,2780,3747,278.3,75,25
0.074009,328.8,60.2,2786.4,61.0,3813.7,454.1,325.5,2777.4,3745.1,278.1,74.9,24.9
0.076009,329.0,58.4,2785.4,68.2,3810.3,508.2,325.6,2775,3743.3,278,74.8,24.7
0.078009,329.8,59.3,2784.9,71.6,3797.9,517.1,325.7,2772.9,3741.7,277.8,74.7,24.6
0.080009,330.9,62.2,2785.6,70.8,3784.5,474.7,325.8,2771.2,3740.2,277.6,74.7,24.5
0.082009,331.9,65.3,2786.1,67.7,3775.0,426.4,325.9,2769.8,3739,277.4,74.6,24.4
0.084009,332.5,66.8,2785.1,64.8,3770.1,398.5,326.1,2768.8,3737.9,277.2,74.6,24.3
0.086009,332.7,66.5,2782.8,63.9,3768.2,387.6,326.2,2768.1,3737,277,74.6,24.4
0.088009,332.7,65.9,2780.9,65.1,3765.2,380.3,326.4,2767.9,3736.3,276.8,74.6,24.5
0.090009,332.5,66.3,2781.0,67.1,3759.9,365.1,326.6,2768.1,3735.8,276.6,74.6,24.8
0.092009,332.4,68.2,2783.3,67.9,3756.0,340.4,326.8,2768.8,3735.5,276.4,74.6,25.1
0.094009,332.5,70.9,2786.1,67.4,3754.4,312.8,327,2769.8,3735.5,276.2,74.6,25.4
0.096009,332.5,72.9,2787.1,67.0,3752.3,289.5,327.2,2771.3,3735.7,276,74.6,25.5
0.098009,332.4,73.2,2785.5,67.3,3747.0,274.3,327.5,2773.2,3736,275.7,74.7,25.5
0.100009,332.1,72.6,2782.7,67.0,3739.0,264.1,327.7,2775.6,3736.6,275.5,74.7,25.3
0.102009,331.7,72.0,2780.9,65.6,3731.2,258.3,328,2778.4,3737.4,275.3,74.7,25
0.104009,331.2,71.8,2780.7,64.3,3726.4,257.7,328.3,2781.6,3738.4,275,74.7,24.8
0.106009,330.6,71.6,2781.7,65.4,3724.6,261.1,328.6,2785.2,3739.6,274.8,74.7,24.8
0.108009,329.9,72.0,2783.3,70.3,3722.7,265.6,328.9,2789.2,3741,274.5,74.8,24.9
0.110009,329.2,72.9,2785.4,79.3,3718.1,272.9,329.2,2793.5,3742.6,274.3,74.8,25.1
0.112009,328.3,73.5,2786.8,91.2,3712.7,286.8,329.5,2798.2,3744.3,274,74.8,25.3
0.114009,327.2,73.0,2786.5,104.3,3711.1,307.9,329.9,2803.2,3746.2,273.7,74.8,25.6
0.116009,325.9,71.3,2785.1,119.1,3715.1,332.8,330.2,2808.5,3748.2,273.4,74.8,25.7
0.118009,324.6,69.3,2785.5,136.6,3719.8,356.1,330.5,2814.1,3750.3,273.1,74.8,25.9
0.120009,323.4,67.6,2790.0,159.2,3719.5,382.3,330.9,2819.9,3752.6,272.9,74.8,26.1
0.122009,322.4,66.3,2798.5,184.9,3713.1,417.5,331.2,2825.8,3754.9,272.6,74.8,26.2
0.124009,321.8,65.6,2808.8,205.5,3706.2,456.2,331.6,2832,3757.2,272.3,74.8,26.2
0.126009,321.5,66.7,2820.7,210.4,3712.6,471.5,332,2838.3,3759.7,272,74.8,26
0.128009,321.7,69.8,2832.5,201.5,3733.5,450.4,332.3,2844.6,3762.1,271.7,74.8,25.4
0.130009,322.3,72.8,2842.7,193.8,3754.3,427.0,332.7,2851,3764.6,271.4,74.8,24.5
0.132009,323.3,74.9,2852.8,193.4,3770.4,414.1,333,2857.5,3767,271.1,74.8,23.5
0.134009,324.6,76.6,2864.6,197.7,3781.5,402.1,333.4,2863.9,3769.4,270.7,74.8,22.7
0.136009,326.3,78.6,2878.0,203.7,3789.2,385.0,333.7,2870.2,3771.8,270.4,74.7,22.1
0.138009,328.1,80.6,2888.9,207.3,3795.0,367.5,334,2876.4,3774.1,270.1,74.7,21.8
0.140009,329.9,81.8,2893.2,206.3,3800.2,355.9,334.3,2882.6,3776.3,269.8,74.7,21.8
0.142009,331.7,81.8,2891.0,202.7,3804.4,353.7,334.6,2888.5,3778.4,269.5,74.7,21.9
0.144009,333.4,80.6,2888.9,203.0,3805.8,360.2,334.9,2894.2,3780.4,269.2,74.6,22
0.146009,335.0,79.1,2895.3,211.5,3801.4,368.7,335.2,2899.7,3782.2,268.9,74.6,22.2
0.148009,336.5,78.6,2911.3,219.5,3793.5,367.1,335.4,2904.9,3783.9,268.6,74.6,22.3
0.150009,338.1,79.8,2929.6,214.7,3786.1,350.4,335.7,2909.8,3785.4,268.3,74.6,22.6
0.152009,339.6,82.9,2943.0,197.0,3780.3,323.4,335.9,2914.4,3786.7,268,74.6,22.8
0.154009,341.3,87.5,2950.7,175.9,3777.0,294.1,336.1,2918.7,3787.9,267.7,74.6,23.1
0.156009,342.9,92.0,2954.4,159.9,3776.7,271.0,336.2,2922.5,3788.8,267.4,74.7,23.3
0.158009,343.9,93.6,2954.8,154.4,3778.0,262.9,336.4,2926,3789.5,267.1,74.7,23.4
0.160009,344.3,91.8,2952.5,156.4,3778.1,266.3,336.5,2929,3790.1,266.8,74.7,23.5
0.162009,344.4,88.8,2948.2,159.4,3775.5,271.2,336.6,2931.7,3790.4,266.5,74.7,23.6
0.164009,344.3,86.4,2943.5,157.3,3770.4,269.7,336.6,2933.9,3790.5,266.2,74.6,23.8
0.166009,344.0,85.3,2938.6,148.3,3763.9,262.8,336.7,2935.7,3790.4,265.9,74.6,23.9
0.168009,343.3,85.4,2934.2,135.5,3759.2,254.2,336.7,2937,3790,265.7,74.6,24.1
0.170009,342.3,86.7,2930.9,122.4,3758.9,245.9,336.7,2937.9,3789.5,265.4,74.5,24.3
0.172009,341.1,88.6,2929.0,111.5,3763.8,239.0,336.6,2938.3,3788.8,265.1,74.5,24.5
0.174009,339.8,90.2,2927.9,104.1,3772.0,234.7,336.5,2938.4,3787.8,264.8,74.4,24.6
0.176009,338.2,90.1,2927.0,101.7,3781.2,233.9,336.4,2938,3786.7,264.6,74.4,24.7
0.178009,336.3,88.5,2926.1,104.1,3787.6,233.0,336.3,2937.2,3785.4,264.3,74.3,24.6
0.180009,334.3,86.9,2925.2,107.7,3789.4,226.9,336.1,2936,3783.9,264,74.3,24.5
0.182009,332.7,86.1,2924.1,109.4,3787.6,217.8,335.9,2934.5,3782.3,263.8,74.2,24.3
0.184009,331.4,85.8,2922.3,108.4,3784.2,212.9,335.7,2932.6,3780.5,263.5,74.2,24.1
0.186009,330.3,84.9,2918.3,106.5,3778.3,217.3,335.5,2930.4,3778.6,263.2,74.1,24
0.188009,329.3,83.1,2912.2,106.5,3768.9,229.9,335.2,2927.9,3776.6,263,74.1,24
0.190009,328.6,81.1,2904.6,108.9,3758.7,244.9,334.9,2925.1,3774.6,262.7,74.1,24.1
0.192009,328.1,79.7,2896.9,111.4,3753.8,256.0,334.6,2922.1,3772.4,262.5,74.1,24.2
0.194009,327.6,78.5,2890.9,111.5,3755.4,262.0,334.3,2919,3770.3,262.2,74.1,24.4
0.196009,327.1,76.7,2887.7,109.1,3757.1,266.2,333.9,2915.7,3768.1,262,74.1,24.6
0.198009,326.8,74.4,2886.3,107.6,3753.9,270.8,333.5,2912.2,3765.9,261.7,74.1,24.8
0.200009,326.8,72.4,2884.6,110.5,3748.7,274.8,333.2,2908.7,3763.7,261.5,74.1,25.2
0.202009,327.4,71.3,2882.1,119.7,3749.0,276.6,332.8,2905.1,3761.6,261.2,74.1,25.6
0.204009,328.4,71.0,2880.2,134.2,3757.7,277.2,332.4,2901.6,3759.5,261,74.1,25.9
0.206009,329.8,71.3,2881.3,150.7,3772.6,279.3,332,2898.1,3757.5,260.8,74.1,26.2
0.208009,331.2,71.6,2886.7,163.0,3789.1,286.7,331.5,2894.6,3755.6,260.5,74.1,26.3
0.210009,332.4,71.4,2895.2,169.8,3804.5,303.5,331.1,2891.3,3753.8,260.3,74.1,26.3
0.212009,333.1,70.2,2902.8,174.1,3814.0,327.1,330.7,2888.1,3752.2,260.1,74.1,26.3
0.214009,333.4,68.9,2905.4,177.7,3810.5,340.3,330.3,2885.1,3750.7,259.8,74.1,26.2
0.216009,333.6,68.3,2901.5,176.7,3790.7,319.8,329.9,2882.4,3749.4,259.6,74.1,26
0.218009,333.8,68.6,2895.2,167.8,3768.5,276.6,329.5,2879.9,3748.2,259.4,74.1,25.7
0.220009,333.9,68.9,2891.6,157.3,3756.7,243.5,329.2,2877.7,3747.3,259.1,74.1,25.2
0.222009,334.0,69.2,2891.3,150.7,3756.2,232.4,328.8,2875.8,3746.5,258.9,74.1,24.6
0.224009,333.8,69.8,2891.5,146.2,3762.4,236.0,328.5,2874.3,3745.9,258.7,74.1,24.2
0.226009,333.4,71.4,2889.3,137.6,3771.2,244.6,328.2,2873.1,3745.6,258.4,74.1,23.8
0.228009,332.9,73.5,2885.2,124.7,3777.9,256.6,327.9,2872.3,3745.5,258.2,74.1,23.7
0.230009,332.5,75.1,2882.9,114.1,3778.3,273.3,327.7,2871.9,3745.5,257.9,74.1,23.8
0.232009,332.3,75.6,2884.2,111.4,3770.7,285.6,327.5,2871.9,3745.8,257.7,74.2,23.8
0.234009,332.3,75.3,2887.5,115.6,3759.7,283.4,327.3,2872.3,3746.3,257.4,74.2,24
0.236009,332.5,74.9,2890.2,122.9,3750.9,270.8,327.2,2873.2,3747,257.2,74.2,24
0.238009,333.0,74.3,2890.3,131.0,3746.8,261.8,327.1,2874.5,3747.9,256.9,74.3,24
0.240009,333.7,73.1,2887.9,141.2,3746.9,263.4,327.1,2876.2,3749,256.6,74.3,24
0.242009,334.2,71.7,2885.0,153.5,3751.2,271.8,327.1,2878.3,3750.2,256.4,74.3,24
0.244009,334.1,70.8,2885.2,165.6,3760.2,275.7,327.2,2880.8,3751.5,256.1,74.4,24
0.246009,333.3,70.7,2890.4,173.3,3772.8,272.0,327.3,2883.7,3753,255.8,74.4,24.1
0.248009,331.8,70.7,2898.4,174.1,3785.7,269.6,327.6,2887,3754.6,255.4,74.4,24.3
0.250009,330.2,70.6,2905.9,169.4,3797.0,273.3,327.8,2890.6,3756.2,255.1,74.5,24.6
0.252009,328.6,70.3,2911.3,163.9,3803.6,280.1,328.2,2894.6,3757.9,254.8,74.5,24.9
0.254009,327.2,69.5,2915.6,163.4,3802.8,286.0,328.6,2898.8,3759.7,254.4,74.5,25.2
0.256009,326.3,68.4,2920.8,171.1,3794.9,291.3,329.1,2903.3,3761.3,254.1,74.5,25.3
0.258009,326.0,67.6,2926.9,186.3,3782.7,297.4,329.7,2908,3763,253.7,74.5,25.3
0.260009,326.1,67.7,2933.7,207.3,3768.2,300.7,330.3,2912.8,3764.6,253.3,74.5,25.1
0.262009,326.5,68.9,2938.9,230.3,3755.0,296.9,331.1,2917.8,3766,252.9,74.5,24.9
0.264009,327.1,70.4,2938.9,248.7,3746.5,291.1,331.9,2922.9,3767.3,252.4,74.5,24.7
0.266009,327.8,70.8,2933.2,258.5,3741.1,292.4,332.8,2928,3768.4,252,74.5,24.5
0.268009,328.9,69.9,2928.7,262.9,3732.6,300.1,333.7,2933,3769.2,251.5,74.5,24.4
0.270009,330.4,68.8,2930.9,266.7,3717.1,302.9,334.8,2938,3769.8,251,74.5,24.3
0.272009,332.4,68.5,2940.1,267.2,3697.6,292.3,336,2942.9,3770.1,250.5,74.4,24.3
0.274009,334.7,69.7,2952.7,258.8,3679.7,272.0,337.2,2947.6,3770,250,74.4,24.2
0.276009,337.5,72.4,2963.0,238.8,3666.2,248.7,338.5,2952,3769.5,249.5,74.4,24
0.278009,340.2,74.9,2965.6,216.2,3659.3,234.0,339.9,2956.2,3768.6,248.9,74.3,23.8
0.280009,342.2,74.8,2962.1,202.3,3659.1,238.3,341.4,2960,3767.2,248.4,74.3,23.4
0.282009,343.5,72.2,2955.8,200.7,3664.6,265.8,343,2963.4,3765.3,247.8,74.3,23
0.284009,344.2,68.4,2949.0,210.3,3672.2,316.5,344.7,2966.3,3762.8,247.2,74.2,22.7
0.286009,344.3,64.7,2943.6,227.2,3678.8,387.5,346.4,2968.7,3759.8,246.6,74.2,22.4
0.288009,344.0,61.9,2941.9,242.7,3686.4,464.3,348.3,2970.5,3756.2,246,74.2,22.4
0.290009,343.5,60.2,2943.8,249.8,3700.7,535.6,350.2,2971.7,3751.9,245.3,74.1,22.4
0.292009,342.8,59.7,2947.9,247.2,3726.2,592.6,352.2,2972.3,3746.9,244.7,74.1,22.5
0.294009,342.2,59.8,2951.6,241.3,3759.3,646.4,354.3,2972.1,3741.3,244,74,22.4
0.296009,342.0,59.8,2952.5,237.7,3793.3,716.5,356.4,2971.2,3734.9,243.4,74,22.3
0.298009,342.3,59.4,2949.2,236.1,3820.6,798.1,358.6,2969.5,3727.9,242.7,73.9,21.8
0.300009,343.6,58.8,2942.6,229.6,3836.0,843.2,360.9,2967,3720,242,73.8,21
0.302009,346.5,58.9,2934.1,209.3,3812.6,761.9,363.3,2963.7,3711.5,241.3,73.6,20.3
0.304009,351.2,60.2,2925.3,178.2,3760.0,607.0,365.7,2959.4,3702.1,240.7,73.5,19.6
0.306009,357.7,61.6,2916.7,149.6,3712.7,484.5,368.2,2954.3,3692,240,73.4,19.3
0.308009,365.1,61.3,2907.6,130.9,3679.4,423.1,370.7,2948.3,3681.1,239.3,73.2,19.3
0.310009,372.9,59.1,2897.6,119.4,3657.0,404.0,373.3,2941.3,3669.4,238.6,73.1,19.6
0.312009,380.6,55.8,2887.7,112.5,3643.3,412.5,375.9,2933.4,3657,237.9,73,20.1
0.314009,387.7,52.6,2879.2,108.9,3633.5,431.3,378.6,2924.6,3643.9,237.2,72.9,20.5
0.316009,394.1,49.9,2872.0,108.8,3621.2,448.3,381.3,2914.9,3630,236.5,72.8,20.7
0.318009,399.9,46.9,2865.3,111.8,3607.3,468.4,384,2904.2,3615.4,235.8,72.8,20.6
0.320009,404.7,43.8,2858.8,115.5,3597.2,496.0,386.8,2892.7,3600.2,235.1,72.7,20.3
0.322009,408.4,40.8,2851.5,119.3,3587.1,531.4,389.6,2880.3,3584.2,234.4,72.8,19.9
0.324009,410.9,38.0,2842.5,123.9,3568.2,562.9,392.4,2867.1,3567.7,233.7,72.8,19.6
0.326009,411.9,35.7,2831.5,127.8,3538.2,567.0,395.2,2853.1,3550.6,232.9,72.9,19.4
0.328009,411.7,34.5,2819.9,127.8,3509.4,539.4,398,2838.3,3532.9,232.2,73,19.4
0.330009,410.7,34.8,2810.7,124.1,3497.0,518.2,400.8,2822.7,3514.8,231.5,73.1,19.5
0.332009,409.4,35.8,2804.2,120.2,3503.1,531.9,403.6,2806.5,3496.2,230.8,73.2,19.6
0.334009,408.8,37.0,2799.7,116.5,3530.0,577.4,406.5,2789.7,3477.2,230.1,73.4,19.6
0.336009,409.5,37.6,2796.0,112.7,3573.5,621.3,409.2,2772.4,3457.9,229.4,73.6,19.6
0.338009,411.8,36.9,2790.4,111.9,3605.2,635.0,412,2754.5,3438.3,228.6,73.8,19.4
0.340009,415.3,34.9,2782.1,116.5,3593.9,626.9,414.7,2736.2,3418.5,227.9,74.1,19.2
0.342009,419.5,31.8,2770.9,123.2,3545.6,611.2,417.4,2717.5,3398.5,227.1,74.4,18.9
0.344009,423.7,28.0,2757.2,130.0,3474.4,599.0,420.1,2698.6,3378.4,226.4,74.7,18.6
0.346009,427.9,23.6,2740.9,136.2,3391.9,575.2,422.7,2679.4,3358.3,225.6,75.1,18.2
0.348009,431.6,19.7,2724.3,141.2,3319.1,530.1,425.3,2660.1,3338.3,224.8,75.5,17.8
0.350009,434.6,16.3,2708.1,146.8,3261.5,473.8,427.8,2640.7,3318.3,224,75.9,17.3
0.352009,437.0,13.5,2693.3,154.6,3220.7,421.4,430.2,2621.4,3298.6,223.2,76.4,16.8
0.354009,438.6,11.4,2680.3,166.0,3193.3,384.6,432.6,2602.2,3279.1,222.4,76.9,16.4
0.356009,439.4,10.0,2668.3,183.0,3173.6,369.4,434.9,2583.1,3259.9,221.6,77.4,16.3
0.358009,439.8,9.2,2658.1,202.6,3162.0,380.1,437.2,2564.4,3241.2,220.8,77.9,16.6
0.360009,439.7,9.0,2649.7,218.1,3163.5,415.2,439.3,2546,3222.8,219.9,78.4,17.1
0.362009,439.2,9.1,2638.6,224.3,3179.6,462.1,441.4,2528,3205.1,219.1,78.8,17.7
0.364009,438.6,9.3,2617.0,224.5,3197.2,492.8,443.3,2510.6,3187.9,218.2,79.1,18.3
0.366009,438.1,9.6,2582.4,223.6,3195.6,482.0,445.2,2493.8,3171.4,217.3,79.4,18.5
0.368009,437.6,10.2,2545.0,221.3,3173.4,438.3,447,2477.6,3155.6,216.5,79.5,18.4
0.370009,437.2,11.3,2512.2,214.8,3151.1,399.6,448.7,2462.2,3140.7,215.6,79.4,18.1
0.372009,436.7,13.2,2486.3,206.1,3140.1,391.2,450.2,2447.7,3126.5,214.7,79.2,17.6
0.374009,436.3,16.1,2464.9,198.9,3139.0,409.2,451.7,2434,3113.3,213.8,78.9,17
0.376009,435.9,20.8,2443.4,196.2,3139.8,426.8,453,2421.3,3101.1,212.9,78.4,16.4
0.378009,435.9,27.6,2420.1,198.6,3135.0,417.1,454.2,2409.6,3089.9,212.1,77.7,15.5
0.380009,436.9,37.3,2393.6,202.5,3125.4,391.1,455.3,2399,3079.7,211.2,77,14.5
0.382009,440.1,49.4,2363.5,205.2,3111.3,372.3,456.3,2389.5,3070.6,210.3,76.2,13.4
0.384009,446.6,61.5,2330.4,205.2,3090.9,371.2,457.2,2381.2,3062.6,209.5,75.3,12.4
0.386009,457.0,71.0,2297.1,202.2,3063.3,385.9,457.9,2374.1,3055.9,208.7,74.6,11.6
0.388009,468.0,75.4,2269.3,197.1,3034.1,403.5,458.5,2368.2,3050.3,207.9,74.1,11.3
0.390009,475.6,73.6,2244.5,190.1,3004.1,411.5,458.9,2363.6,3045.9,207.2,73.7,11.3
0.392009,477.3,66.2,2219.4,182.4,2971.8,406.9,459.3,2360.3,3042.8,206.4,73.6,11.3
0.394009,474.6,57.0,2191.8,174.9,2937.8,391.3,459.5,2358.4,3040.9,205.7,73.6,11.3
0.396009,469.6,48.4,2158.6,163.4,2907.1,355.1,459.5,2357.7,3040.3,205.1,73.7,11
