time,f1,b1,f2,b2,f3,b3,f1p,f2p,f3p,f0,intensity,harmonicity
0.025544,630.3,69.1,2429.0,1102.8,2525.5,263.7,632.8,2414.1,2670.9,216.2,72.2,14.9
0.027544,637.9,64.4,2426.7,993.2,2514.0,296.7,634.3,2412.2,2673.1,216.1,72.3,14.7
0.029544,643.9,61.5,2447.1,792.7,2491.9,377.9,636.7,2409,2676.8,216.1,72.5,14.6
0.031544,647.9,61.6,2407.8,417.7,2537.6,678.5,640.2,2404.5,2681.7,216,72.6,14.6
0.033544,650.9,64.6,2368.5,322.3,2600.7,772.0,644.5,2398.9,2687.9,216,72.7,14.6
0.035544,653.5,69.5,2355.9,253.9,2659.8,884.1,649.6,2392.2,2695.1,215.9,72.7,14.7
0.037544,656.5,75.6,2350.0,210.3,2723.9,966.2,655.6,2384.4,2703.2,215.8,72.6,14.8
0.039544,660.4,84.3,2347.5,183.9,2779.7,1026.2,662.3,2375.6,2712,215.8,72.5,15
0.041544,664.9,96.5,2347.6,168.1,2839.6,1122.6,669.6,2366,2721.3,215.7,72.4,15.2
0.043544,670.3,114.6,2348.0,154.4,3004.1,1210.1,677.5,2355.7,2730.8,215.6,72.3,15.6
0.045544,677.2,134.5,2346.2,145.2,3091.5,1052.2,685.9,2344.7,2740.4,215.5,72.1,16
0.047544,687.2,150.0,2343.4,143.6,3159.6,1179.2,694.6,2333.1,2749.8,215.4,72,16.5
0.049544,698.8,160.8,2340.8,143.4,2829.5,2208.9,703.7,2321.1,2758.7,215.3,72,17.3
0.051544,708.7,170.1,2336.9,142.0,2698.5,2150.4,712.9,2308.8,2767,215.2,71.9,18.1
0.053544,718.8,179.1,2329.6,146.0,2681.9,2104.0,722.3,2296.3,2774.5,215.2,71.9,18.8
0.055544,729.1,185.1,2317.0,161.0,2718.2,1885.1,731.7,2283.7,2780.9,215.1,71.9,19.2
0.057544,739.9,187.7,2296.0,187.9,2755.5,1444.6,741.1,2271,2786.2,215,71.8,19.2
0.059544,750.2,189.4,2265.9,213.6,2761.2,1033.3,750.3,2258.5,2790.1,214.9,71.8,19
0.061544,758.7,193.7,2241.8,221.3,2773.4,826.4,759.3,2246.1,2792.7,214.8,71.7,18.7
0.063544,767.5,201.3,2228.5,223.2,2794.2,752.8,768.1,2234,2793.8,214.7,71.7,18.4
0.065544,776.8,209.8,2221.7,229.4,2813.4,750.6,776.6,2222.1,2793.3,214.6,71.6,18.2
0.067544,786.7,216.0,2212.8,243.0,2801.6,756.8,784.6,2210.6,2791.3,214.5,71.5,18.1
0.069544,797.1,216.8,2195.5,263.8,2740.1,708.9,792.4,2199.5,2787.9,214.5,71.5,18
0.071544,806.4,211.6,2172.6,281.1,2683.8,617.7,799.6,2188.9,2783,214.4,71.4,18
0.073544,814.6,203.2,2151.5,289.5,2655.3,553.7,806.5,2178.7,2776.7,214.3,71.4,18.1
0.075544,820.9,197.1,2139.7,290.7,2651.7,543.2,812.9,2168.9,2769.2,214.2,71.4,18.1
0.077544,825.7,196.2,2134.4,286.9,2663.8,564.0,818.9,2159.6,2760.6,214.2,71.4,18.3
0.079544,829.0,201.1,2132.0,279.1,2684.5,594.2,824.5,2150.8,2751,214.1,71.4,18.5
0.081544,831.1,206.9,2129.5,270.6,2699.1,616.7,829.7,2142.5,2740.6,214,71.4,18.7
0.083544,833.8,208.4,2125.9,262.1,2701.1,635.7,834.5,2134.5,2729.6,214,71.4,18.9
0.085544,836.9,207.7,2125.1,254.5,2702.9,666.7,838.9,2127,2718.2,213.9,71.5,19
0.087544,840.0,209.0,2127.3,248.2,2717.1,716.4,843.1,2119.9,2706.6,213.8,71.5,19.1
0.089544,843.1,214.5,2129.2,245.2,2750.3,781.1,847,2113.1,2694.8,213.8,71.5,19
0.091544,846.9,222.8,2127.2,248.0,2791.7,842.0,850.8,2106.6,2683.2,213.7,71.5,18.9
0.093544,852.0,230.3,2119.4,255.2,2812.3,889.3,854.3,2100.4,2671.9,213.6,71.5,18.9
0.095544,856.3,233.0,2109.4,260.8,2777.3,900.0,857.8,2094.5,2660.9,213.6,71.5,18.9
0.097544,858.8,231.4,2101.0,263.1,2700.6,860.2,861.2,2088.8,2650.6,213.5,71.5,19
0.099544,860.6,227.8,2092.8,267.3,2613.5,787.5,864.6,2083.2,2640.9,213.4,71.4,19.2
0.101544,863.3,225.7,2084.2,274.2,2553.2,731.5,868,2077.9,2632.1,213.3,71.4,19.4
0.103544,867.3,227.1,2077.2,276.8,2536.1,722.0,871.4,2072.7,2624.1,213.2,71.4,19.5
0.105544,872.1,228.9,2072.5,271.6,2572.1,734.1,875,2067.7,2617,213.2,71.3,19.5
0.107544,877.4,227.2,2067.2,267.2,2629.9,706.1,878.6,2062.8,2610.8,213.1,71.3,19.3
0.109544,882.4,223.4,2060.3,266.7,2668.6,649.3,882.4,2058,2605.6,213,71.3,19
0.111544,886.5,220.4,2052.0,263.6,2678.9,609.4,886.2,2053.4,2601.4,212.9,71.3,18.6
0.113544,890.4,217.4,2043.3,253.9,2670.3,591.2,890.2,2048.8,2598.1,212.8,71.3,18.3
0.115544,894.2,213.7,2037.4,243.8,2649.6,591.2,894.3,2044.5,2595.7,212.7,71.3,18.1
0.117544,898.4,210.0,2033.1,239.5,2621.9,604.3,898.4,2040.3,2594.1,212.6,71.3,18.1
0.119544,903.5,206.3,2027.8,243.3,2593.6,623.2,902.7,2036.2,2593.2,212.5,71.4,18.3
0.121544,909.3,201.0,2020.1,252.1,2570.6,628.7,906.9,2032.4,2593.1,212.4,71.4,18.5
0.123544,915.4,194.1,2011.7,262.5,2553.2,621.5,911.2,2028.7,2593.5,212.3,71.5,18.8
0.125544,920.9,188.2,2009.0,267.2,2550.2,612.9,915.3,2025.3,2594.4,212.2,71.5,19.2
0.127544,925.6,182.5,2011.3,261.6,2562.8,604.3,919.4,2022.1,2595.8,212.1,71.5,19.7
0.129544,929.4,177.2,2015.1,248.0,2587.7,599.5,923.3,2019.2,2597.4,212,71.6,20.4
0.131544,931.8,174.6,2018.1,235.6,2612.1,607.3,926.9,2016.6,2599.3,211.9,71.6,21.1
0.133544,933.2,176.4,2021.2,228.5,2623.4,635.2,930.3,2014.3,2601.4,211.8,71.6,21.7
0.135544,934.1,181.1,2024.3,228.3,2611.0,674.7,933.4,2012.4,2603.5,211.7,71.6,21.9
0.137544,934.7,185.2,2025.9,232.9,2580.8,707.4,936.1,2010.7,2605.6,211.6,71.7,21.8
0.139544,935.7,184.8,2024.1,239.2,2552.7,715.5,938.3,2009.4,2607.8,211.5,71.7,21.3
0.141544,937.3,178.1,2017.9,242.4,2542.5,685.6,940.1,2008.4,2609.8,211.4,71.7,20.7
0.143544,939.0,168.1,2009.4,240.9,2547.7,628.9,941.3,2007.8,2611.7,211.3,71.7,20.2
0.145544,940.1,161.6,2003.8,236.2,2560.8,585.2,942,2007.6,2613.4,211.2,71.7,19.9
0.147544,940.3,160.2,2002.1,228.9,2576.7,568.6,942.2,2007.6,2615,211.1,71.7,20
0.149544,939.5,163.1,2003.9,218.1,2594.9,581.0,941.8,2008,2616.4,211,71.6,20.2
0.151544,938.0,168.0,2007.7,208.2,2613.2,611.8,940.7,2008.7,2617.7,210.9,71.6,20.5
0.153544,936.0,174.0,2012.2,203.3,2632.8,651.9,939.1,2009.6,2618.7,210.8,71.5,20.8
0.155544,933.3,179.8,2015.3,206.3,2649.6,683.7,937,2010.8,2619.6,210.7,71.5,21.1
0.157544,929.5,185.6,2016.4,215.3,2660.3,693.0,934.3,2012.3,2620.3,210.6,71.4,21.2
0.159544,924.7,191.9,2015.4,226.7,2661.8,680.6,931.1,2013.9,2620.9,210.5,71.3,21.4
0.161544,920.4,199.1,2014.2,235.4,2654.4,670.7,927.5,2015.8,2621.4,210.4,71.3,21.5
0.163544,917.3,207.8,2014.9,240.4,2642.8,683.8,923.5,2017.7,2621.8,210.3,71.2,21.6
0.165544,915.7,214.1,2018.0,240.4,2634.7,716.1,919.2,2019.8,2622.1,210.2,71.2,21.6
0.167544,914.8,214.9,2021.5,236.1,2636.1,749.0,914.6,2022,2622.3,210.1,71.1,21.6
0.169544,913.9,209.9,2023.5,230.3,2649.3,765.4,909.8,2024.1,2622.5,210.1,71.1,21.5
0.171544,912.5,203.4,2023.7,227.9,2664.6,757.6,904.9,2026.3,2622.7,210,71.1,21.3
0.173544,910.1,198.9,2024.0,231.1,2674.9,734.0,900,2028.5,2622.8,209.9,71,21.1
0.175544,907.0,197.6,2026.0,237.1,2678.4,704.9,895.2,2030.6,2622.9,209.8,71,21
0.177544,903.2,197.4,2029.5,241.2,2675.4,674.9,890.5,2032.6,2623,209.7,70.9,20.9
0.179544,898.3,197.8,2034.2,239.4,2668.2,656.1,886.1,2034.4,2623.2,209.6,70.9,20.9
0.181544,892.6,198.5,2037.2,230.2,2657.3,651.0,882,2036.1,2623.3,209.5,70.9,20.9
0.183544,885.8,198.1,2037.4,215.6,2637.2,647.9,878.2,2037.7,2623.4,209.4,70.9,20.8
0.185544,879.6,195.5,2035.9,202.7,2612.5,638.8,875,2039,2623.5,209.4,70.9,20.7
0.187544,874.2,190.9,2034.8,193.5,2592.1,627.9,872.2,2040.1,2623.5,209.3,70.9,20.4
0.189544,868.6,186.1,2035.9,186.5,2578.9,633.2,870,2041,2623.6,209.2,70.9,20.1
0.191544,862.0,184.0,2040.4,180.4,2566.6,670.1,868.4,2041.6,2623.7,209.1,70.9,19.8
0.193544,852.1,186.0,2048.9,172.7,2550.5,751.4,867.4,2042,2623.7,209.1,70.9,19.3
0.195544,839.6,190.3,2058.0,162.4,2544.1,864.6,867.1,2042.2,2623.7,209,70.9,18.9
