time,f1,b1,f2,b2,f3,b3,f1p,f2p,f3p,f0,intensity,harmonicity
0.025036,662.1,64.1,2163.1,201.4,3099.5,302.2,668.2,2131.7,3132.9,216.8,74.5,10.5
0.027036,667.1,72.4,2131.2,198.8,3098.4,299.7,673.4,2123.1,3132.9,216.5,74.4,10.8
0.029036,676.7,84.7,2102.8,203.0,3109.0,299.1,681.8,2109.2,3133,216.2,74.3,11.2
0.031036,692.6,100.5,2077.7,212.7,3130.0,301.0,692.8,2090.7,3133.7,215.9,74.3,11.6
0.033036,712.0,115.0,2057.1,222.1,3152.5,308.2,705.9,2068.6,3135.4,215.5,74.3,12
0.035036,730.9,123.5,2036.1,226.5,3168.5,321.0,720.5,2044,3138.4,215.2,74.3,12.5
0.037036,746.0,125.7,2012.0,225.7,3176.2,332.2,735.8,2018,3143.3,214.8,74.3,13.2
0.039036,757.5,125.3,1985.7,220.5,3180.0,333.9,751,1991.7,3150.3,214.5,74.4,13.8
0.041036,767.2,125.4,1959.0,210.7,3183.6,332.0,765.6,1966,3159.6,214.1,74.4,14.5
0.043036,776.0,127.2,1936.6,198.1,3188.5,337.7,778.9,1941.8,3171.2,213.7,74.4,15
0.045036,784.8,130.4,1919.0,185.6,3195.9,353.5,790.5,1919.7,3184.8,213.3,74.3,15.2
0.047036,793.5,134.2,1905.4,176.1,3206.2,370.4,800.2,1900.1,3200.1,212.9,74.1,15.1
0.049036,801.7,137.7,1893.4,171.1,3216.9,377.2,807.9,1883,3216.4,212.5,74,14.9
0.051036,809.1,141.6,1880.2,171.5,3225.6,374.5,813.5,1868.4,3233.2,212.1,73.8,14.7
0.053036,815.0,146.1,1865.7,177.2,3231.8,369.9,817.2,1855.9,3249.6,211.6,73.6,14.6
0.055036,819.5,150.9,1850.0,186.5,3236.8,368.3,819.3,1845,3264.8,211.2,73.4,14.8
0.057036,822.5,156.0,1834.6,198.2,3242.9,372.8,820.2,1835.3,3278.3,210.8,73.3,15.2
0.059036,824.2,162.6,1821.3,211.6,3253.1,383.3,820.3,1826.1,3289.4,210.3,73.2,15.7
0.061036,824.6,171.1,1810.7,225.1,3268.7,394.3,820,1816.9,3297.8,209.9,73.1,16.2
0.063036,823.9,181.2,1803.2,237.9,3288.2,401.7,819.6,1807.3,3303.5,209.4,73,16.7
0.065036,822.6,192.6,1796.7,253.2,3310.4,408.4,819.3,1797,3306.6,209,73,17
0.067036,821.2,203.6,1788.5,271.8,3331.4,414.5,819.5,1786,3307.4,208.5,72.9,17.1
0.069036,820.1,211.3,1775.4,287.0,3344.1,413.4,820.1,1774.2,3306.7,208.1,72.8,17.1
0.071036,819.0,212.9,1756.8,286.4,3342.6,398.5,821.1,1761.8,3305.2,207.6,72.7,17.2
0.073036,818.1,206.6,1739.1,268.1,3329.8,374.7,822.5,1749.2,3303.8,207.1,72.6,17.2
0.075036,818.1,194.5,1726.4,245.8,3315.1,354.4,824,1736.7,3303.4,206.7,72.5,17.2
0.077036,819.9,181.5,1719.3,232.6,3306.5,347.3,825.4,1724.8,3304.9,206.2,72.4,17.1
0.079036,823.2,171.3,1715.8,231.8,3306.6,355.2,826.4,1713.9,3308.9,205.7,72.3,17.1
0.081036,827.2,164.3,1713.3,241.0,3313.6,373.5,826.8,1704.1,3315.9,205.3,72.3,17
0.083036,830.0,160.5,1709.2,255.9,3324.8,395.5,826.3,1695.7,3326.2,204.8,72.3,17.1
0.085036,830.6,159.9,1701.6,274.7,3341.0,421.2,824.7,1688.8,3339.6,204.4,72.3,17.3
0.087036,828.8,162.7,1691.9,295.1,3362.2,451.2,822,1683.1,3355.9,203.9,72.3,17.7
0.089036,824.4,168.6,1682.4,311.6,3382.5,480.3,818.2,1678.3,3374.3,203.4,72.3,18.1
0.091036,816.4,174.8,1673.1,314.4,3391.6,493.8,813.2,1674.1,3394.1,203,72.3,18.6
0.093036,805.9,177.6,1664.2,300.1,3387.6,487.2,807.3,1669.9,3414.2,202.5,72.4,18.9
0.095036,794.9,175.7,1655.5,277.7,3381.6,483.5,800.7,1665.3,3433.6,202.1,72.3,19
0.097036,785.7,171.7,1647.3,258.4,3383.5,507.7,793.6,1659.6,3451.4,201.6,72.3,19
0.099036,779.3,168.6,1640.7,248.8,3403.5,571.3,786.3,1652.6,3466.6,201.2,72.3,18.8
0.101036,774.9,167.2,1636.0,249.3,3454.5,665.7,779,1643.8,3478.7,200.8,72.2,18.5
0.103036,771.0,164.9,1631.2,255.1,3523.3,740.7,772,1633.3,3487,200.3,72.2,18.3
0.105036,766.3,159.5,1623.8,260.9,3570.7,758.7,765.6,1621,3491.6,199.9,72.1,18.1
0.107036,761.7,151.5,1614.0,265.1,3574.4,727.8,759.8,1607.3,3492.6,199.5,72.1,17.8
0.109036,758.7,142.3,1603.3,270.7,3554.5,678.0,754.8,1592.7,3490.5,199.1,72.1,17.5
0.111036,757.5,133.9,1591.6,284.6,3533.2,627.7,750.6,1577.8,3486,198.7,72,17.2
0.113036,756.6,127.1,1577.4,305.4,3512.5,592.2,747.2,1563.3,3479.9,198.3,72,17
0.115036,752.8,118.2,1556.4,316.6,3475.8,583.8,744.6,1550,3473.1,198,72,16.7
0.117036,746.5,109.0,1534.7,313.9,3433.1,602.0,742.7,1538.8,3466.7,197.6,71.9,16.5
0.119036,739.7,103.2,1522.1,314.5,3411.3,642.8,741.4,1530.2,3461.4,197.3,71.9,16.4
0.121036,733.2,99.3,1517.3,323.9,3413.2,676.0,740.6,1524.9,3457.9,197,71.8,16.2
0.123036,727.4,95.8,1513.7,336.9,3422.6,665.3,740.4,1523,3456.7,196.7,71.7,16.1
