time,f1,b1,f2,b2,f3,b3,f1p,f2p,f3p,f0,intensity,harmonicity
0.025692,441.9,24.4,2639.7,204.3,3435.3,509.9,490.2,2597.5,3384,216.3,74.6,16.4
0.027692,443.8,33.1,2599.7,203.9,3390.4,477.8,492.4,2594.6,3380.7,216.2,74.3,16
0.029692,448.8,46.9,2573.9,190.0,3347.7,475.3,496.2,2589.8,3375.3,216,73.8,15.7
0.031692,459.2,65.3,2567.2,176.3,3310.7,482.1,501.4,2583.2,3367.8,215.8,73.3,15.3
0.033692,478.6,86.4,2570.6,164.4,3289.8,474.5,508.1,2574.8,3358.3,215.7,72.9,15
0.035692,507.0,103.7,2572.0,151.7,3285.3,442.3,516,2564.7,3346.9,215.5,72.6,14.6
0.037692,540.4,110.9,2564.1,137.3,3287.6,393.4,525.2,2553,3333.8,215.3,72.5,14.3
0.039692,572.2,106.5,2548.5,122.8,3296.6,346.2,535.6,2539.8,3319.2,215.2,72.5,14
0.041692,596.5,95.7,2530.9,112.6,3313.1,318.9,547.1,2525.3,3303.1,215,72.6,13.7
0.043692,614.6,83.1,2512.7,108.5,3331.0,314.2,559.5,2509.5,3285.7,214.8,72.7,13.4
0.045692,627.2,71.8,2495.0,110.7,3337.1,328.7,572.8,2492.7,3267.4,214.6,72.9,13.1
0.047692,635.8,63.3,2476.2,118.3,3326.8,355.8,586.8,2475,3248.3,214.4,73.1,12.7
0.049692,640.9,57.7,2454.4,131.1,3306.9,396.3,601.5,2456.6,3228.6,214.2,73.2,12.3
0.051692,644.0,55.5,2430.2,145.6,3280.0,443.8,616.5,2437.5,3208.6,214,73.2,11.8
0.053692,646.8,57.5,2404.0,158.2,3235.1,482.2,632,2417.9,3188.5,213.9,73.2,11.5
0.055692,650.2,65.1,2379.8,167.8,3174.8,483.8,647.6,2398.1,3168.6,213.7,73,11.4
0.057692,655.4,78.8,2357.4,175.3,3120.7,453.3,663.3,2378,3149.1,213.5,72.7,11.5
0.059692,664.0,98.6,2335.1,177.0,3086.8,426.8,679,2357.9,3130.3,213.3,72.5,11.7
0.061692,677.4,121.2,2315.7,170.2,3070.9,428.2,694.5,2337.8,3112.5,213.1,72.2,12.1
0.063692,695.8,143.0,2301.1,159.7,3063.6,459.7,709.8,2317.9,3095.7,212.9,72,12.6
0.065692,715.3,158.4,2291.4,153.4,3058.5,506.7,724.6,2298.3,3080.3,212.7,71.9,13
0.067692,733.3,167.2,2282.8,153.3,3052.0,543.4,739,2278.9,3066.5,212.5,71.8,13.6
0.069692,749.5,172.8,2271.6,158.9,3044.7,555.9,752.9,2260,3054.4,212.4,71.7,14.3
0.071692,762.9,178.3,2256.3,170.8,3040.1,557.6,766,2241.5,3044.2,212.2,71.6,15
0.073692,773.5,185.9,2234.9,188.8,3036.1,568.0,778.5,2223.5,3036.1,212,71.6,15.6
0.075692,781.3,195.3,2210.8,206.5,3030.2,593.5,790.2,2206,3030.1,211.9,71.5,16.2
0.077692,789.1,206.9,2189.9,217.6,3028.3,620.1,801.2,2188.9,3026.3,211.7,71.3,16.5
0.079692,799.1,221.6,2174.8,221.7,3037.8,629.5,811.3,2172.4,3024.9,211.5,71.2,16.8
0.081692,810.4,237.4,2163.2,222.4,3048.8,619.4,820.6,2156.4,3025.8,211.4,71.1,17
0.083692,821.7,253.6,2151.2,218.8,3048.1,591.9,829,2140.9,3029,211.3,71,17.1
0.085692,830.2,269.0,2139.2,212.1,3036.1,561.7,836.7,2125.9,3034.5,211.1,70.9,17.3
0.087692,835.0,283.9,2127.5,209.2,3027.3,549.2,843.5,2111.3,3042.2,211,70.9,17.4
0.089692,837.4,298.9,2115.2,214.6,3030.5,559.4,849.5,2097.1,3052.1,210.9,70.8,17.5
0.091692,839.0,313.2,2101.2,227.5,3041.4,586.7,854.8,2083.3,3064.1,210.7,70.7,17.6
0.093692,840.9,326.6,2084.3,244.7,3054.2,628.6,859.4,2069.9,3077.9,210.6,70.6,17.6
0.095692,845.5,339.0,2066.4,258.1,3067.5,674.6,863.4,2056.7,3093.4,210.5,70.6,17.6
0.097692,854.2,351.4,2048.2,260.2,3083.4,705.1,866.8,2043.9,3110.5,210.4,70.6,17.6
0.099692,867.6,364.4,2030.2,245.6,3103.0,683.5,869.7,2031.4,3128.9,210.3,70.6,17.4
0.101692,883.0,376.9,2013.8,221.0,3120.8,622.0,872.2,2019.1,3148.5,210.2,70.7,17.3
0.103692,894.0,390.2,1997.5,199.1,3140.8,575.6,874.3,2007.1,3168.9,210.1,70.7,17.2
0.105692,898.5,404.4,1982.0,184.5,3173.1,559.6,876,1995.4,3190,210,70.8,17.4
0.107692,901.5,415.8,1967.3,173.5,3224.7,555.7,877.5,1983.9,3211.5,209.9,70.8,17.8
0.109692,906.8,421.3,1954.4,165.1,3292.6,546.1,878.9,1972.7,3233.2,209.8,70.8,18.4
0.111692,912.1,423.1,1945.0,162.3,3353.2,530.1,880.1,1961.8,3254.9,209.7,70.8,19.1
0.113692,911.2,427.0,1937.9,168.7,3385.2,531.5,881.2,1951.2,3276.3,209.6,70.8,19.8
0.115692,900.2,431.1,1929.4,179.1,3381.5,565.7,882.2,1940.9,3297.2,209.5,70.8,20.3
0.117692,885.7,428.4,1917.0,181.7,3356.8,600.4,883.3,1931,3317.4,209.4,70.8,20.6
0.119692,876.2,420.9,1904.8,173.5,3335.5,599.3,884.3,1921.6,3336.7,209.3,70.8,20.8
0.121692,872.7,413.2,1896.8,162.5,3329.4,579.0,885.5,1912.5,3355.1,209.3,70.8,20.9
0.123692,873.8,407.1,1893.2,154.7,3337.5,557.0,886.6,1903.9,3372.3,209.2,70.8,21
0.125692,878.4,404.5,1892.9,153.4,3355.1,538.2,887.9,1895.9,3388.2,209.1,70.8,21
0.127692,882.3,403.2,1893.7,159.9,3375.6,532.1,889.1,1888.4,3402.9,209,70.7,21.1
0.129692,882.0,398.6,1893.2,173.3,3396.5,544.9,890.4,1881.5,3416.1,208.9,70.7,21.2
0.131692,880.3,390.5,1890.9,188.8,3413.1,556.1,891.7,1875.1,3427.9,208.9,70.6,21.3
0.133692,883.9,384.4,1888.1,199.3,3414.1,534.1,893,1869.4,3438.3,208.8,70.6,21.2
0.135692,893.9,383.8,1884.0,196.9,3407.1,491.8,894.3,1864.4,3447.3,208.7,70.5,21.1
0.137692,905.6,386.6,1877.2,183.0,3411.0,462.8,895.4,1860,3454.9,208.6,70.5,20.8
0.139692,913.4,389.9,1869.5,168.6,3425.5,459.7,896.4,1856.3,3461.3,208.5,70.4,20.3
0.141692,913.4,391.7,1863.6,163.8,3441.1,481.1,897.3,1853.2,3466.5,208.4,70.4,19.8
0.143692,906.5,392.1,1859.8,171.0,3451.8,527.9,897.8,1850.8,3470.7,208.3,70.3,19.3
0.145692,895.5,393.4,1857.4,189.3,3457.7,611.7,898.2,1849,3473.8,208.2,70.3,18.9
0.147692,884.6,399.3,1854.4,213.0,3464.9,731.0,898.1,1847.9,3476.2,208.1,70.2,18.6
0.149692,881.6,410.5,1851.1,227.8,3476.8,806.4,897.8,1847.3,3477.9,208,70.2,18.2
0.151692,887.7,420.9,1848.0,225.2,3499.4,755.6,897,1847.2,3479,207.9,70.1,18
0.153692,892.3,424.8,1844.7,212.2,3518.7,647.4,895.8,1847.7,3479.8,207.8,70.1,17.9
0.155692,884.7,422.1,1841.2,200.3,3525.7,576.2,894.1,1848.6,3480.3,207.7,70,18
0.157692,865.2,415.6,1838.0,194.5,3529.4,548.7,891.9,1849.9,3480.7,207.5,70,18.4
0.159692,844.9,408.2,1835.6,193.5,3528.9,547.9,889.3,1851.6,3481,207.4,70,19.1
0.161692,837.5,407.0,1836.7,191.8,3506.6,567.7,886.1,1853.6,3481.5,207.2,69.9,19.8
0.163692,846.5,413.1,1843.9,187.2,3473.5,554.7,882.5,1855.9,3482.2,207.1,69.9,20.6
0.165692,867.1,415.4,1856.5,179.0,3464.3,502.6,878.4,1858.3,3483.2,206.9,69.8,21.1
0.167692,888.0,403.5,1868.9,167.7,3475.4,447.6,873.9,1860.9,3484.5,206.7,69.8,21.4
0.169692,898.8,383.0,1875.0,157.0,3493.8,408.6,869,1863.7,3486.2,206.6,69.7,21.7
0.171692,899.9,364.8,1874.0,150.4,3508.9,391.0,863.8,1866.4,3488.3,206.4,69.6,21.8
0.173692,895.8,351.7,1870.5,149.2,3516.9,393.2,858.3,1869.2,3490.9,206.2,69.6,21.8
0.175692,888.7,344.6,1869.2,153.9,3518.0,409.7,852.5,1872,3493.8,206,69.5,21.7
0.177692,879.6,338.6,1870.3,161.2,3518.3,428.8,846.6,1874.7,3497,205.8,69.4,21.4
0.179692,868.3,329.7,1871.1,168.2,3523.0,448.3,840.6,1877.3,3500.6,205.6,69.4,20.9
0.181692,857.8,319.0,1871.5,173.4,3526.7,465.8,834.6,1879.7,3504.4,205.4,69.3,20.4
0.183692,850.5,309.4,1873.1,175.9,3516.5,481.4,828.7,1882.1,3508.4,205.2,69.2,19.8
0.185692,845.5,303.5,1875.7,174.5,3482.9,499.4,823,1884.3,3512.5,204.9,69.1,19.3
0.187692,837.0,300.8,1877.6,171.5,3437.8,521.9,817.5,1886.3,3516.6,204.7,69.1,19
0.189692,821.5,299.1,1879.1,171.2,3404.4,549.9,812.3,1888.1,3520.5,204.5,69,18.7
0.191692,804.2,296.5,1882.2,174.3,3392.9,578.2,807.6,1889.7,3524.3,204.3,68.9,18.4
0.193692,791.5,294.6,1888.1,177.8,3403.2,596.1,803.3,1891.1,3527.8,204.1,68.8,18.2
0.195692,787.6,294.9,1895.4,177.2,3436.0,594.1,799.5,1892.3,3530.9,203.9,68.7,18.1
0.197692,788.5,292.6,1901.4,169.8,3485.1,582.5,796.4,1893.2,3533.5,203.7,68.7,18
0.199692,785.9,283.6,1904.7,158.8,3541.0,587.8,793.9,1894,3535.7,203.5,68.7,18.1
0.201692,775.7,270.4,1905.7,151.1,3601.9,629.2,792.1,1894.5,3537.2,203.3,68.7,18.2
0.203692,758.8,253.6,1905.6,150.7,3679.4,709.1,791,1894.9,3538.2,203.1,68.7,18.3
0.205692,740.1,234.5,1904.6,159.4,3766.8,820.5,790.6,1895,3538.5,203,68.7,18.2
