time,f1,b1,f2,b2,f3,b3,f1p,f2p,f3p,f0,intensity,harmonicity
0.025583,489.1,29.9,2493.2,228.8,3316.0,214.1,499.2,2554.5,3361.3,255.5,74.8,8.1
0.027583,492.5,25.3,2513.1,289.3,3335.3,236.3,499,2555.2,3360.5,255.2,75.2,11
0.029583,494.6,21.9,2531.6,338.5,3344.0,256.3,498.7,2556.3,3359.2,255,75.6,14.2
0.031583,496.0,19.1,2544.2,372.1,3343.7,265.9,498.4,2557.8,3357.4,254.7,76.1,17.1
0.033583,496.9,17.0,2553.9,397.1,3341.5,268.5,497.9,2559.7,3355,254.5,76.5,19.4
0.035583,497.6,15.5,2565.7,414.2,3342.5,271.9,497.4,2561.8,3352.1,254.2,76.9,20.9
0.037583,498.4,14.2,2578.2,411.5,3347.3,279.1,496.8,2564.2,3348.6,253.8,77.3,21.8
0.039583,499.3,13.3,2585.7,384.5,3352.8,283.5,496.3,2566.7,3344.7,253.5,77.7,22.5
0.041583,500.4,12.8,2588.3,342.3,3353.7,276.0,495.8,2569.3,3340.1,253.2,78,23
0.043583,501.4,12.5,2591.1,303.3,3348.6,255.4,495.4,2571.8,3335,252.8,78.4,23.5
0.045583,502.2,12.2,2598.3,272.7,3342.1,232.2,495.1,2574.2,3329.4,252.5,78.8,24
0.047583,502.9,12.0,2606.2,248.2,3336.6,217.7,494.9,2576.4,3323.3,252.1,79.1,24.3
0.049583,503.2,11.9,2605.6,228.1,3330.1,212.8,494.9,2578.2,3316.6,251.7,79.4,24.6
0.051583,503.4,11.9,2594.0,210.2,3320.5,211.4,495.2,2579.6,3309.4,251.3,79.7,24.8
0.053583,503.4,12.1,2579.6,196.9,3310.0,210.9,495.7,2580.4,3301.8,250.8,79.9,24.8
0.055583,503.2,12.3,2570.0,189.1,3299.9,214.9,496.6,2580.6,3293.6,250.4,80.1,24.6
0.057583,503.1,12.8,2566.9,188.7,3288.3,232.5,497.8,2580,3285.1,249.9,80.2,24.2
0.059583,502.8,13.4,2567.7,198.1,3273.2,274.3,499.4,2578.6,3276.2,249.5,80.3,23.8
0.061583,502.5,14.2,2569.2,219.3,3250.0,351.8,501.4,2576.2,3267,249,80.2,23.3
0.063583,502.3,15.4,2568.9,246.6,3222.4,437.3,503.8,2572.8,3257.4,248.5,80.1,22.9
0.065583,502.5,17.1,2565.2,266.1,3207.8,466.1,506.7,2568.4,3247.7,248,79.9,22.5
0.067583,503.1,20.2,2560.6,266.1,3217.2,418.1,510,2562.9,3237.9,247.5,79.6,22
0.069583,504.5,24.4,2559.4,253.8,3233.6,357.2,513.8,2556.2,3227.9,247,79.2,21.6
0.071583,506.5,30.1,2556.8,243.6,3246.3,320.2,518.1,2548.4,3218,246.5,78.8,21.2
0.073583,509.1,36.5,2548.7,245.1,3252.1,314.8,522.9,2539.3,3208.2,246,78.3,20.9
0.075583,512.4,43.7,2537.7,259.8,3250.4,327.3,528.1,2529.1,3198.7,245.4,77.7,20.7
0.077583,517.2,52.4,2528.0,287.6,3239.6,336.1,533.8,2517.7,3189.4,244.9,77.2,20.6
0.079583,523.5,62.2,2521.0,320.8,3224.1,328.5,539.9,2505.1,3180.5,244.4,76.6,20.5
0.081583,532.0,74.0,2512.4,350.1,3210.0,312.6,546.4,2491.5,3172.1,243.8,76,20.4
0.083583,542.5,86.3,2498.9,370.9,3200.4,302.1,553.3,2476.7,3164.4,243.3,75.5,20.1
0.085583,555.3,97.6,2479.7,390.7,3192.5,302.0,560.5,2461.1,3157.3,242.7,75,19.6
0.087583,570.1,105.6,2456.1,411.4,3182.8,309.3,568.1,2444.5,3151.1,242.1,74.6,19
0.089583,584.5,108.8,2433.0,420.9,3170.8,311.6,575.9,2427,3145.8,241.6,74.4,18.3
0.091583,597.9,108.2,2410.6,412.6,3157.2,299.8,583.9,2408.9,3141.5,241,74.3,17.8
0.093583,608.5,105.1,2389.3,392.6,3145.5,279.1,592,2390,3138.2,240.4,74.4,17.6
0.095583,616.9,100.6,2368.4,372.0,3136.2,262.1,600.3,2370.7,3136.1,239.9,74.6,17.8
0.097583,623.9,95.5,2348.2,358.0,3128.5,256.5,608.7,2350.9,3135.2,239.3,74.9,18.4
0.099583,629.9,90.7,2330.8,355.2,3123.8,264.7,617,2330.9,3135.6,238.7,75.2,19.1
0.101583,635.6,85.4,2312.9,366.9,3121.8,289.5,625.4,2310.6,3137.3,238.1,75.5,19.7
0.103583,641.0,79.8,2293.2,392.1,3120.5,327.3,633.6,2290.2,3140.2,237.5,75.8,19.9
0.105583,646.8,73.7,2269.3,425.8,3117.0,370.4,641.7,2269.8,3144.6,236.9,76.1,19.7
0.107583,653.2,67.1,2237.1,456.9,3108.3,411.1,649.7,2249.5,3150.2,236.2,76.4,19.2
0.109583,660.0,60.9,2199.8,460.7,3096.4,439.9,657.4,2229.4,3157.2,235.6,76.6,18.6
0.111583,667.7,55.5,2165.5,426.2,3086.6,452.7,664.9,2209.5,3165.4,235,76.7,17.9
0.113583,675.5,51.9,2142.2,374.6,3081.4,450.6,672.1,2190.1,3174.9,234.3,76.8,17.3
0.115583,683.0,49.6,2125.1,325.3,3077.3,441.5,679,2171,3185.5,233.6,76.8,16.7
0.117583,689.9,47.9,2110.4,285.6,3074.4,434.0,685.6,2152.5,3197.2,232.9,76.8,16.1
0.119583,695.5,47.2,2097.9,259.6,3077.7,439.3,691.9,2134.4,3209.8,232.2,76.7,15.4
0.121583,699.9,47.7,2086.4,242.9,3091.5,466.0,697.7,2117,3223.3,231.5,76.6,14.9
0.123583,703.0,50.0,2076.9,233.0,3116.6,518.7,703.3,2100.1,3237.5,230.7,76.4,14.6
0.125583,704.9,54.4,2069.2,227.5,3159.4,608.6,708.4,2083.8,3252.3,230,76.2,14.4
0.127583,705.9,61.1,2063.2,224.2,3240.3,739.7,713.2,2068.2,3267.6,229.2,76,14.4
0.129583,706.5,69.1,2058.6,219.4,3370.6,832.5,717.7,2053.1,3283.1,228.4,75.8,14.5
0.131583,707.6,78.0,2053.2,212.3,3505.2,773.6,721.8,2038.6,3298.8,227.6,75.5,14.7
0.133583,709.7,85.8,2046.6,207.5,3556.5,651.5,725.6,2024.7,3314.4,226.7,75.3,14.8
0.135583,712.8,92.3,2038.6,205.9,3549.6,565.1,729.1,2011.4,3329.9,225.9,75,15
0.137583,717.3,97.9,2029.3,204.2,3515.4,508.5,732.4,1998.5,3344.9,225,74.8,15.3
0.139583,722.7,102.8,2020.1,200.2,3482.2,464.7,735.4,1986,3359.5,224.1,74.5,15.5
0.141583,728.7,108.0,2011.7,195.4,3467.1,423.1,738.3,1973.9,3373.4,223.3,74.3,15.7
0.143583,735.0,113.7,2003.9,191.4,3467.6,382.6,740.9,1962.2,3386.5,222.3,74.1,15.8
0.145583,741.6,119.7,1993.2,188.4,3468.8,344.4,743.4,1950.7,3398.6,221.4,73.8,15.6
0.147583,748.2,125.4,1977.1,188.7,3457.6,309.7,745.8,1939.4,3409.6,220.5,73.6,15.4
0.149583,753.8,130.7,1959.3,195.5,3431.6,274.2,748.1,1928.3,3419.5,219.6,73.3,15.1
0.151583,758.7,137.2,1942.6,212.4,3404.8,237.6,750.3,1917.2,3428,218.6,73,14.8
0.153583,761.4,144.4,1928.3,240.3,3392.0,217.8,752.6,1906.2,3435.2,217.7,72.8,14.5
0.155583,761.9,151.9,1913.0,272.7,3388.0,216.0,754.8,1895.2,3441,216.7,72.6,14.4
0.157583,761.0,160.3,1895.3,295.5,3387.0,220.9,757,1884.2,3445.4,215.8,72.4,14.3
0.159583,759.5,167.6,1876.7,295.4,3386.7,224.3,759.3,1873.1,3448.2,214.8,72.3,14.3
0.161583,758.9,173.5,1858.4,277.5,3386.6,227.2,761.7,1861.9,3449.6,213.9,72.1,14.2
0.163583,760.9,179.4,1845.3,261.5,3385.9,229.9,764.1,1850.6,3449.5,213,72,13.9
0.165583,766.0,186.2,1835.2,258.9,3384.8,233.1,766.5,1839.1,3448.1,212,71.9,13.5
0.167583,773.1,191.8,1822.3,268.9,3383.8,243.8,769,1827.5,3445.3,211.1,71.7,13
0.169583,781.0,194.5,1804.2,280.4,3382.6,265.8,771.6,1815.9,3441.2,210.2,71.4,12.4
0.171583,789.6,197.3,1782.8,283.2,3379.7,295.3,774.3,1804.1,3436,209.3,71.1,11.8
0.173583,796.7,204.2,1765.1,274.3,3374.7,317.2,776.9,1792.3,3429.8,208.4,70.9,11.4
0.175583,800.3,216.3,1753.2,260.6,3368.8,325.5,779.6,1780.4,3422.7,207.5,70.7,11.1
0.177583,798.3,227.9,1745.6,251.5,3362.5,326.5,782.3,1768.6,3414.9,206.6,70.5,10.9
0.179583,791.7,228.8,1738.5,252.9,3356.2,332.1,784.9,1756.9,3406.5,205.8,70.4,10.8
0.181583,785.2,221.3,1727.4,264.2,3352.8,345.2,787.5,1745.3,3397.7,204.9,70.4,10.8
0.183583,783.6,217.1,1712.0,277.7,3359.4,356.0,790,1733.9,3388.7,204.1,70.3,10.8
0.185583,787.1,219.1,1695.2,284.2,3376.7,360.6,792.4,1722.8,3379.7,203.3,70.3,10.9
0.187583,793.3,220.9,1681.7,282.7,3398.1,367.7,794.6,1712.1,3370.8,202.5,70.2,11
0.189583,797.5,216.4,1673.6,281.0,3411.7,386.3,796.5,1701.9,3362.3,201.8,70.2,11.2
0.191583,798.1,207.1,1667.0,284.7,3409.4,401.8,798.3,1692.1,3354.3,201.1,70.1,11.4
0.193583,796.9,199.5,1660.4,292.4,3393.5,381.4,799.8,1683,3346.9,200.4,70,11.7
0.195583,796.7,197.2,1656.6,301.0,3379.2,332.5,801,1674.5,3340.5,199.7,69.9,11.9
0.197583,798.1,199.0,1657.6,304.0,3373.5,283.4,801.8,1666.7,3335,199,69.8,12.2
0.199583,798.3,198.8,1660.3,292.9,3373.2,254.6,802.3,1659.8,3330.6,198.4,69.7,12.5
0.201583,792.7,191.2,1658.6,269.3,3372.5,256.7,802.4,1653.7,3327.6,197.8,69.5,12.8
0.203583,782.4,178.4,1653.4,248.1,3366.4,292.8,802.1,1648.5,3325.8,197.2,69.4,13.1
0.205583,773.4,168.3,1650.6,239.0,3352.8,344.1,801.4,1644.3,3325.6,196.7,69.3,13.3
0.207583,770.6,164.3,1650.1,245.2,3337.6,386.9,800.2,1641,3326.8,196.2,69.1,13.5
0.209583,775.1,164.8,1649.9,261.2,3331.0,411.4,798.6,1638.7,3329.5,195.7,69,13.7
0.211583,784.2,165.6,1650.1,279.6,3336.3,426.5,796.6,1637.4,3333.8,195.2,68.9,13.9
0.213583,792.1,165.0,1652.6,292.0,3351.0,437.3,794.2,1637.1,3339.7,194.8,68.8,14.1
0.215583,795.8,164.8,1657.2,298.2,3372.7,447.9,791.3,1637.8,3347,194.4,68.7,14.3
0.217583,795.0,166.0,1662.8,300.4,3400.2,459.0,788.1,1639.4,3355.8,194,68.7,14.5
0.219583,791.6,166.0,1667.5,296.7,3424.4,467.0,784.5,1641.9,3365.9,193.7,68.6,14.8
0.221583,787.8,161.9,1670.6,284.9,3436.7,469.9,780.5,1645.2,3377.3,193.3,68.6,15
0.223583,785.3,154.2,1672.6,268.9,3430.0,464.3,776.3,1649.3,3389.8,193,68.6,15.3
0.225583,784.3,145.9,1676.1,254.2,3410.3,446.0,771.8,1654,3403.3,192.7,68.6,15.6
0.227583,783.3,140.9,1683.8,242.2,3391.8,418.3,767.1,1659.4,3417.7,192.5,68.5,15.9
0.229583,780.7,140.6,1694.0,229.4,3382.0,394.3,762.2,1665.3,3432.7,192.2,68.4,16.2
0.231583,775.2,142.4,1702.2,211.1,3375.6,382.3,757.3,1671.6,3448.1,192,68.4,16.5
0.233583,768.0,142.2,1704.2,191.5,3372.5,390.6,752.3,1678.2,3463.9,191.8,68.4,16.6
0.235583,760.3,139.2,1702.4,174.6,3378.9,416.5,747.3,1684.9,3479.7,191.6,68.3,16.6
0.237583,752.6,135.6,1700.3,160.8,3400.2,450.7,742.4,1691.8,3495.4,191.4,68.3,16.6
0.239583,745.6,132.4,1700.2,150.2,3432.7,480.5,737.6,1698.6,3510.8,191.3,68.2,16.5
0.241583,739.1,129.2,1702.9,142.0,3475.9,496.2,733,1705.3,3525.6,191.1,68.2,16.3
0.243583,734.2,125.8,1707.2,136.7,3523.7,479.1,728.6,1711.7,3539.7,191,68.1,16.2
0.245583,730.9,122.0,1711.1,131.4,3566.5,425.7,724.6,1717.8,3552.9,190.9,68.1,16.1
0.247583,727.6,117.5,1713.1,123.1,3595.4,361.9,720.8,1723.4,3565,190.8,68,15.9
0.249583,722.8,112.0,1713.4,111.9,3610.3,317.6,717.5,1728.4,3575.8,190.7,68,15.7
0.251583,715.5,105.8,1713.6,99.9,3618.8,292.8,714.6,1732.9,3585.2,190.6,68,15.5
0.253583,707.5,101.7,1714.6,91.0,3624.7,279.7,712.2,1736.6,3593.1,190.5,67.9,15.3
0.255583,700.1,101.2,1716.2,86.0,3630.3,265.5,710.3,1739.5,3599.3,190.4,67.9,15.1
0.257583,693.1,104.2,1718.0,84.1,3634.9,246.9,708.9,1741.7,3603.9,190.4,67.8,15
0.259583,685.3,107.7,1719.1,83.7,3636.7,231.3,708.1,1743,3606.6,190.3,67.7,14.8
0.261583,674.5,109.2,1719.6,83.9,3636.5,225.3,707.8,1743.4,3607.5,190.3,67.6,14.7
