time,f1,b1,f2,b2,f3,b3,f1p,f2p,f3p,f0,intensity,harmonicity
0.025320,434.4,93.2,2705.9,110.4,3509.5,279.8,482.9,2759.9,3500.3,264,72.8,11.5
0.027320,442.9,87.2,2705.9,112.9,3502.6,249.1,483,2759.8,3500.3,263.8,73,13.6
0.029320,451.7,83.9,2708.2,116.5,3497.5,223.4,483.1,2759.6,3500.1,263.6,73.1,16
0.031320,460.5,82.2,2711.8,122.4,3492.5,202.6,483.3,2759.4,3500,263.3,73.3,18.5
0.033320,467.8,80.1,2716.8,131.4,3488.2,187.1,483.5,2759.1,3499.7,263.1,73.4,20.5
0.035320,473.9,76.5,2723.4,142.0,3485.9,174.1,483.8,2758.7,3499.4,262.8,73.6,21.6
0.037320,478.4,72.0,2730.0,151.3,3486.4,163.7,484.1,2758.3,3499.1,262.6,73.8,22
0.039320,482.4,66.6,2734.1,159.1,3486.9,156.0,484.4,2757.8,3498.7,262.3,74,21.9
0.041320,486.1,61.1,2733.3,163.8,3484.4,151.9,484.8,2757.2,3498.3,262,74.1,21.7
0.043320,489.4,56.3,2727.9,165.2,3479.1,150.7,485.2,2756.6,3497.8,261.7,74.3,21.6
0.045320,492.6,52.0,2719.7,165.9,3472.4,151.2,485.7,2755.9,3497.3,261.4,74.4,21.8
0.047320,495.2,48.4,2711.5,168.2,3466.8,151.8,486.1,2755.2,3496.7,261.1,74.5,22.3
0.049320,497.3,45.0,2706.1,173.2,3464.1,151.7,486.6,2754.5,3496.1,260.7,74.6,22.9
0.051320,499.1,41.9,2707.7,182.2,3466.5,151.6,487.2,2753.7,3495.5,260.4,74.7,23.4
0.053320,500.5,39.4,2717.3,195.1,3472.4,152.1,487.7,2752.9,3494.8,260.1,74.9,23.9
0.055320,502.0,37.1,2732.4,209.0,3479.6,153.3,488.3,2752.1,3494.1,259.7,75,24.2
0.057320,503.4,35.2,2747.0,218.7,3487.1,154.7,488.9,2751.2,3493.3,259.4,75.1,24.4
0.059320,504.5,33.4,2758.9,224.9,3495.4,155.3,489.5,2750.4,3492.5,259,75.2,24.5
0.061320,505.3,31.7,2768.2,230.0,3502.2,154.7,490.2,2749.5,3491.6,258.7,75.4,24.6
0.063320,505.8,30.3,2776.9,232.5,3505.2,155.2,490.8,2748.6,3490.7,258.3,75.6,24.7
0.065320,506.0,29.0,2787.4,228.1,3503.8,158.8,491.4,2747.7,3489.8,257.9,75.8,24.7
0.067320,506.2,28.0,2797.6,216.2,3498.8,165.0,492,2746.9,3488.9,257.5,75.9,24.8
0.069320,506.3,26.9,2805.3,198.4,3492.4,171.9,492.7,2746,3487.9,257.2,76.1,24.8
0.071320,506.1,25.7,2807.8,177.7,3488.5,176.9,493.3,2745.2,3486.9,256.8,76.4,24.8
0.073320,505.7,24.4,2806.6,158.5,3489.0,178.6,493.9,2744.4,3485.8,256.4,76.6,24.8
0.075320,505.3,22.9,2804.5,143.9,3493.4,175.9,494.4,2743.6,3484.8,256,76.8,24.6
0.077320,504.7,21.4,2803.6,138.6,3498.9,171.3,495,2742.9,3483.7,255.6,77,24.3
0.079320,504.1,19.9,2803.7,143.3,3504.0,169.2,495.5,2742.2,3482.6,255.2,77.2,23.9
0.081320,503.5,18.7,2804.3,155.3,3508.3,171.6,496,2741.5,3481.4,254.8,77.4,23.6
0.083320,502.8,17.8,2803.5,167.0,3509.9,176.1,496.5,2740.9,3480.3,254.4,77.6,23.3
0.085320,502.2,17.3,2797.7,170.0,3505.2,180.4,496.9,2740.4,3479.1,254,77.8,23.1
0.087320,501.8,16.9,2787.3,158.0,3494.2,182.2,497.3,2739.9,3477.9,253.6,78,23.1
0.089320,501.3,16.5,2776.9,135.1,3481.3,182.1,497.7,2739.5,3476.6,253.2,78.2,23.1
0.091320,500.7,16.0,2771.3,114.3,3472.9,182.4,498,2739.2,3475.4,252.7,78.3,23.2
0.093320,500.0,15.3,2770.0,102.2,3470.8,182.3,498.2,2738.9,3474.1,252.3,78.5,23.4
0.095320,499.1,14.6,2770.2,97.3,3472.5,179.8,498.4,2738.7,3472.9,251.9,78.7,23.7
0.097320,498.5,14.1,2769.6,97.4,3474.8,177.4,498.5,2738.6,3471.5,251.4,78.8,24.1
0.099320,497.8,13.6,2766.8,100.6,3478.5,179.9,498.6,2738.6,3470.2,251,78.9,24.6
0.101320,497.2,13.2,2762.3,105.8,3485.5,189.8,498.7,2738.6,3468.9,250.6,79.1,25.2
0.103320,496.4,12.6,2757.6,110.7,3493.5,202.3,498.6,2738.7,3467.5,250.1,79.2,25.7
0.105320,495.5,11.9,2754.0,112.4,3499.4,209.8,498.5,2739,3466.1,249.7,79.3,26.1
0.107320,494.8,11.5,2752.2,109.3,3499.8,205.9,498.4,2739.3,3464.8,249.2,79.4,26.5
0.109320,494.4,11.4,2750.6,102.4,3494.8,194.1,498.1,2739.7,3463.3,248.7,79.4,26.9
0.111320,494.3,11.6,2748.6,95.3,3490.4,182.1,497.9,2740.1,3461.9,248.3,79.5,27.1
0.113320,494.2,11.8,2745.6,90.8,3490.9,174.7,497.5,2740.7,3460.4,247.8,79.5,27.3
0.115320,493.9,11.8,2739.6,88.3,3493.1,170.7,497.1,2741.3,3459,247.3,79.5,27.3
0.117320,493.3,11.8,2731.6,86.9,3490.7,166.6,496.6,2742,3457.5,246.8,79.5,27.1
0.119320,492.6,11.6,2724.1,86.4,3481.6,161.0,496,2742.8,3455.9,246.3,79.5,26.8
0.121320,491.7,11.5,2718.8,88.1,3469.3,158.4,495.4,2743.7,3454.4,245.8,79.5,26.4
0.123320,490.6,11.3,2715.1,92.7,3457.7,164.1,494.7,2744.6,3452.8,245.3,79.4,26
0.125320,489.1,11.0,2711.6,99.7,3445.9,178.3,493.9,2745.6,3451.2,244.8,79.3,25.5
0.127320,487.6,10.8,2708.4,105.8,3434.4,192.1,493.1,2746.7,3449.6,244.3,79.3,24.9
0.129320,485.9,10.5,2706.1,109.3,3425.8,199.1,492.2,2747.8,3447.9,243.8,79.2,24.2
0.131320,484.0,10.3,2705.8,110.9,3424.6,201.6,491.3,2749,3446.3,243.3,79.1,23.6
0.133320,482.3,10.0,2707.2,113.3,3428.8,203.7,490.3,2750.2,3444.6,242.7,79,23.1
0.135320,480.7,9.7,2710.3,118.3,3433.2,205.9,489.2,2751.5,3442.8,242.2,78.9,22.9
0.137320,479.3,9.5,2714.1,125.4,3430.9,205.8,488.1,2752.8,3441,241.7,78.9,22.9
0.139320,478.3,9.6,2718.4,134.8,3419.4,201.7,486.9,2754.1,3439.2,241.1,78.9,23
0.141320,477.6,9.8,2724.0,147.5,3405.1,195.6,485.7,2755.5,3437.4,240.6,79,23.1
0.143320,477.1,9.7,2732.3,163.1,3396.1,194.0,484.4,2756.8,3435.5,240.1,79.1,23.3
0.145320,476.6,9.5,2744.9,174.5,3394.0,199.5,483.1,2758.2,3433.6,239.5,79.2,23.6
0.147320,476.1,9.2,2759.5,170.8,3396.5,209.4,481.7,2759.6,3431.6,239,79.3,23.8
0.149320,475.5,8.7,2773.5,151.9,3398.8,219.1,480.3,2761,3429.6,238.4,79.5,24.2
0.151320,475.0,8.3,2782.5,129.2,3396.1,221.5,478.9,2762.4,3427.6,237.9,79.6,24.5
0.153320,474.3,7.9,2785.0,113.0,3389.8,216.6,477.5,2763.7,3425.5,237.3,79.8,24.7
0.155320,473.7,7.6,2783.2,104.5,3385.6,211.1,476,2765,3423.4,236.8,79.9,24.8
0.157320,473.0,7.5,2780.4,102.5,3388.5,211.3,474.5,2766.3,3421.2,236.2,79.9,24.9
0.159320,472.2,7.4,2778.8,104.0,3399.0,219.0,472.9,2767.6,3419,235.7,80,24.8
0.161320,471.1,7.5,2778.6,105.6,3411.9,231.9,471.4,2768.8,3416.8,235.1,79.9,24.7
0.163320,469.9,7.7,2777.6,105.5,3420.6,245.2,469.8,2770,3414.5,234.6,79.9,24.5
0.165320,468.3,7.9,2774.6,105.0,3423.3,258.9,468.2,2771.1,3412.2,234,79.8,24.1
0.167320,466.4,8.2,2771.3,105.9,3421.7,269.4,466.7,2772.1,3409.9,233.5,79.6,23.5
0.169320,464.2,8.4,2769.6,107.5,3418.9,274.0,465.1,2773.1,3407.5,232.9,79.5,22.8
0.171320,462.2,8.7,2770.1,106.8,3417.8,273.7,463.5,2774,3405,232.4,79.3,22.1
0.173320,460.6,9.0,2770.2,102.0,3418.8,273.7,461.9,2774.9,3402.6,231.8,79.2,21.7
0.175320,459.6,9.2,2767.8,93.9,3419.7,274.3,460.4,2775.6,3400.1,231.3,79.2,21.8
0.177320,459.2,9.3,2763.6,86.2,3418.7,272.1,458.8,2776.2,3397.5,230.7,79.1,22.3
0.179320,459.1,9.4,2759.1,80.9,3417.0,265.2,457.3,2776.8,3395,230.2,79.1,23.1
0.181320,459.0,9.2,2756.0,78.7,3415.2,256.5,455.8,2777.3,3392.4,229.6,79.1,23.9
0.183320,458.5,9.0,2754.0,78.1,3412.4,249.7,454.3,2777.6,3389.7,229,79.1,24.6
0.185320,457.6,8.6,2751.4,77.5,3407.6,244.1,452.8,2777.9,3387.1,228.5,79.1,24.8
0.187320,456.5,8.3,2748.2,76.7,3402.2,237.0,451.4,2778.1,3384.4,227.9,79.1,24.8
0.189320,455.3,8.0,2745.8,77.4,3397.8,225.0,450,2778.1,3381.7,227.3,79.1,24.7
0.191320,454.1,7.7,2746.7,81.1,3394.8,211.0,448.6,2778.1,3379,226.8,79,24.4
0.193320,453.1,7.5,2750.2,87.1,3389.2,200.7,447.2,2777.9,3376.3,226.2,78.9,24
0.195320,452.2,7.5,2754.8,94.7,3378.6,194.0,445.9,2777.6,3373.6,225.6,78.8,23.6
0.197320,451.2,7.7,2759.3,101.4,3367.6,189.7,444.6,2777.3,3370.9,225,78.7,22.9
0.199320,449.9,8.1,2765.1,105.7,3364.3,188.1,443.4,2776.8,3368.1,224.5,78.6,22.1
0.201320,448.3,8.4,2772.3,105.2,3372.6,190.1,442.2,2776.2,3365.4,223.9,78.4,21.4
0.203320,446.4,8.8,2778.5,101.4,3383.0,193.9,441,2775.5,3362.7,223.3,78.2,20.8
0.205320,444.2,9.2,2782.1,98.0,3385.3,199.7,439.9,2774.8,3360,222.7,78.1,20.5
0.207320,442.1,9.6,2782.8,97.8,3375.8,208.0,438.8,2773.9,3357.3,222.1,77.9,20.4
0.209320,440.2,9.9,2782.5,100.9,3356.0,218.9,437.7,2772.9,3354.7,221.6,77.7,20.4
0.211320,438.8,10.0,2782.6,105.7,3329.8,230.5,436.7,2771.9,3352,221,77.7,20.6
0.213320,437.9,9.8,2783.0,108.8,3303.9,239.6,435.8,2770.8,3349.4,220.4,77.7,20.9
0.215320,437.5,9.4,2783.3,107.2,3283.8,245.5,434.9,2769.6,3346.9,219.8,77.7,21.3
0.217320,437.5,8.9,2783.8,102.1,3274.8,253.3,434,2768.3,3344.4,219.2,77.8,22.2
0.219320,437.6,8.5,2784.4,96.5,3274.9,269.8,433.1,2767,3341.9,218.6,77.9,23.1
0.221320,437.7,8.2,2784.2,92.2,3283.2,292.8,432.3,2765.6,3339.5,218,78,24
0.223320,437.6,8.1,2782.4,88.7,3300.1,310.3,431.6,2764.1,3337.2,217.4,78.1,24.5
0.225320,437.3,8.3,2778.7,85.0,3324.8,311.6,430.8,2762.6,3334.9,216.8,78.1,24.5
0.227320,436.6,8.7,2774.3,80.8,3346.9,296.0,430.2,2761.1,3332.7,216.2,78,23.8
0.229320,435.5,9.2,2770.2,76.7,3358.8,275.0,429.5,2759.5,3330.5,215.6,77.9,22.9
0.231320,434.2,9.7,2766.6,74.4,3357.6,260.5,428.9,2758,3328.5,215,77.7,21.8
0.233320,432.8,10.3,2763.4,74.1,3348.1,253.1,428.3,2756.4,3326.5,214.4,77.4,20.8
0.235320,431.1,11.0,2760.7,75.1,3337.1,245.9,427.7,2754.8,3324.6,213.7,77,20.1
0.237320,429.5,11.9,2759.2,76.5,3331.1,235.9,427.2,2753.2,3322.8,213.1,76.6,19.6
0.239320,427.6,13.2,2758.2,78.8,3328.5,224.7,426.6,2751.6,3321.1,212.5,76.1,19.1
0.241320,425.5,14.8,2756.9,82.1,3324.7,216.8,426.1,2750,3319.5,211.9,75.7,18.6
0.243320,423.6,16.8,2754.8,86.6,3317.9,214.2,425.6,2748.4,3318.1,211.3,75.2,18.3
0.245320,421.6,19.0,2752.2,92.9,3307.6,216.2,425.2,2746.9,3316.7,210.7,74.8,17.9
0.247320,419.8,21.1,2749.5,99.6,3296.9,217.1,424.7,2745.5,3315.4,210.1,74.4,17.6
0.249320,418.2,23.0,2746.2,103.6,3290.8,208.9,424.3,2744,3314.3,209.4,74.1,17.4
0.251320,417.4,24.3,2741.8,103.3,3293.6,193.4,423.9,2742.6,3313.2,208.8,74,17.2
0.253320,417.5,24.5,2737.3,102.4,3299.9,181.9,423.4,2741.3,3312.3,208.2,73.9,17
0.255320,418.1,23.6,2733.4,103.9,3301.3,181.5,423,2740.1,3311.5,207.6,74,16.9
0.257320,419.0,22.1,2731.4,107.9,3294.9,193.5,422.6,2738.9,3310.9,207,74,16.9
0.259320,419.8,20.7,2731.9,113.5,3286.1,213.3,422.2,2737.8,3310.3,206.4,74.1,16.9
0.261320,420.1,19.7,2735.3,118.9,3284.1,230.8,421.8,2736.8,3309.9,205.9,74.1,16.9
0.263320,419.9,19.8,2740.8,122.1,3289.7,238.0,421.3,2735.9,3309.6,205.3,74.1,16.8
0.265320,419.1,21.1,2747.5,120.4,3297.9,233.6,420.9,2735.1,3309.4,204.7,73.9,16.4
0.267320,417.7,23.7,2753.7,113.9,3307.9,224.8,420.5,2734.3,3309.4,204.2,73.7,15.6
0.269320,415.5,27.0,2759.4,106.2,3325.1,220.7,420.1,2733.7,3309.5,203.6,73.5,14.8
0.271320,413.2,29.5,2763.4,100.6,3348.8,222.7,419.6,2733.2,3309.7,203.1,73.3,13.9
0.273320,411.7,29.7,2764.3,96.1,3368.0,226.0,419.1,2732.8,3310,202.5,73.3,13.4
0.275320,411.5,27.6,2762.3,90.1,3373.8,230.8,418.7,2732.5,3310.4,202,73.4,13.3
0.277320,412.2,24.7,2759.5,82.8,3365.8,239.1,418.2,2732.3,3311,201.5,73.5,13.7
0.279320,412.6,22.1,2757.3,76.6,3353.2,250.6,417.7,2732.2,3311.6,201,73.7,14.3
0.281320,412.0,20.4,2755.4,74.2,3345.0,264.0,417.2,2732.2,3312.4,200.5,73.9,15
0.283320,410.6,19.5,2753.4,76.1,3340.8,280.4,416.7,2732.3,3313.3,199.9,73.9,15.8
0.285320,409.0,19.5,2751.4,81.1,3335.0,301.9,416.1,2732.5,3314.2,199.4,73.9,16.5
0.287320,408.1,20.5,2749.9,86.0,3326.2,324.4,415.6,2732.8,3315.3,198.9,73.8,17.4
0.289320,407.7,22.2,2747.6,89.8,3319.8,352.7,415,2733.2,3316.4,198.5,73.6,18.4
0.291320,407.2,23.8,2743.5,93.7,3325.4,397.9,414.5,2733.7,3317.6,198,73.4,19.3
0.293320,406.1,24.9,2737.8,98.2,3344.3,456.8,413.9,2734.3,3318.9,197.5,73.1,19.9
0.295320,404.5,26.0,2731.2,103.2,3368.9,505.7,413.3,2735,3320.2,197,72.8,20.3
0.297320,403.3,27.2,2725.9,107.4,3385.6,514.9,412.7,2735.7,3321.6,196.5,72.6,20.3
0.299320,402.8,28.3,2723.5,109.0,3393.4,490.7,412.1,2736.5,3323.1,196,72.3,20.1
0.301320,403.6,29.1,2725.4,106.8,3393.2,450.0,411.5,2737.4,3324.6,195.5,72.2,19.8
0.303320,405.3,29.9,2730.6,101.8,3381.8,402.8,410.9,2738.3,3326.1,195.1,72,19.5
0.305320,407.1,30.9,2736.4,94.8,3356.9,346.9,410.3,2739.3,3327.7,194.6,71.9,19.1
0.307320,408.0,32.4,2739.3,87.4,3329.8,294.6,409.7,2740.3,3329.3,194.1,71.7,18.6
0.309320,408.3,35.3,2738.1,81.9,3308.7,254.6,409.1,2741.3,3330.9,193.6,71.4,18.1
0.311320,409.1,40.0,2732.7,80.7,3296.7,231.8,408.5,2742.4,3332.4,193.2,71.1,17.5
0.313320,411.1,45.6,2725.0,84.3,3294.0,223.2,407.9,2743.4,3334,192.7,70.8,17.1
0.315320,413.9,50.8,2718.9,93.0,3301.0,226.5,407.3,2744.5,3335.6,192.2,70.5,16.9
0.317320,415.9,54.0,2719.2,105.4,3313.0,238.6,406.8,2745.5,3337.1,191.8,70.2,17
0.319320,416.5,55.4,2725.5,118.6,3322.6,254.0,406.3,2746.5,3338.6,191.3,70,17.2
0.321320,415.5,55.3,2733.2,127.2,3324.7,267.3,405.8,2747.4,3340,190.9,69.9,17.3
0.323320,413.7,54.8,2737.7,129.3,3322.0,275.5,405.3,2748.4,3341.4,190.4,69.8,17.4
0.325320,412.3,54.9,2737.6,126.0,3321.6,276.8,404.8,2749.2,3342.7,190,69.6,17.3
0.327320,411.5,56.1,2733.9,119.4,3329.1,270.0,404.4,2750,3343.9,189.6,69.5,17
0.329320,411.1,57.9,2730.2,111.7,3343.1,256.9,404,2750.7,3345.1,189.2,69.3,16.6
0.331320,410.5,59.6,2731.1,105.3,3354.7,243.2,403.7,2751.2,3346.1,188.8,69.1,16.2
0.333320,409.2,61.0,2736.4,101.9,3358.8,235.4,403.4,2751.7,3347.1,188.4,68.9,15.9
0.335320,407.2,62.6,2741.4,101.5,3355.6,235.5,403.1,2752.1,3347.9,188,68.6,15.8
0.337320,405.8,64.3,2741.6,103.6,3346.6,241.3,403,2752.3,3348.6,187.6,68.4,15.9
0.339320,406.3,65.3,2737.1,107.7,3333.5,249.8,402.8,2752.4,3349.2,187.3,68.1,16
0.341320,408.7,65.3,2731.7,111.6,3322.2,254.7,402.7,2752.3,3349.7,186.9,67.9,16.2
0.343320,411.2,65.7,2728.9,113.5,3318.4,252.0,402.7,2752.1,3350,186.6,67.7,16.4
0.345320,412.9,68.1,2729.0,114.2,3321.5,245.5,402.8,2751.7,3350.2,186.3,67.5,16.6
0.347320,413.7,71.7,2730.2,115.1,3327.2,241.7,402.9,2751.1,3350.2,186,67.2,16.8
0.349320,414.6,75.3,2731.0,117.3,3332.8,242.3,403.1,2750.3,3350,185.7,67.1,17.1
0.351320,416.2,76.7,2730.6,120.5,3334.6,248.6,403.3,2749.3,3349.7,185.4,66.9,17.3
0.353320,417.4,76.0,2728.7,121.0,3331.0,262.1,403.6,2748.1,3349.2,185.1,66.8,17.5
0.355320,417.8,74.5,2725.9,114.7,3322.5,283.7,404,2746.7,3348.5,184.9,66.7,17.6
0.357320,417.3,73.6,2722.9,104.3,3312.3,304.3,404.5,2745.1,3347.7,184.6,66.7,17.6
0.359320,416.2,73.5,2719.2,93.6,3302.6,313.2,405.1,2743.2,3346.7,184.4,66.6,17.7
0.361320,414.4,74.0,2714.2,86.5,3293.4,307.3,405.7,2741.1,3345.5,184.2,66.6,17.7
0.363320,411.8,73.7,2709.3,85.0,3282.6,299.4,406.5,2738.8,3344.1,184,66.6,17.6
0.365320,408.8,70.8,2706.9,88.7,3268.6,301.6,407.3,2736.3,3342.5,183.7,66.6,17.6
0.367320,406.7,66.3,2708.5,93.8,3254.6,315.1,408.2,2733.5,3340.7,183.5,66.6,17.5
0.369320,406.0,62.2,2713.3,95.9,3244.1,332.1,409.2,2730.5,3338.8,183.3,66.6,17.3
0.371320,406.8,59.9,2717.9,94.0,3240.4,341.3,410.2,2727.2,3336.6,183.1,66.6,17.2
0.373320,408.4,60.1,2719.2,91.8,3244.3,334.4,411.4,2723.7,3334.3,182.9,66.5,17
0.375320,410.9,62.5,2716.7,91.2,3256.3,312.2,412.6,2719.9,3331.8,182.7,66.5,16.8
0.377320,413.2,65.5,2713.1,91.7,3272.2,291.5,413.9,2716,3329.1,182.5,66.5,16.6
0.379320,414.6,67.3,2712.4,91.5,3289.4,288.6,415.3,2711.8,3326.2,182.3,66.4,16.4
0.381320,415.0,66.9,2716.2,89.8,3307.4,312.3,416.8,2707.3,3323.2,182.1,66.4,16.2
0.383320,415.3,66.0,2721.4,88.7,3324.5,356.7,418.4,2702.7,3320,181.9,66.4,15.9
0.385320,416.3,66.0,2724.0,92.4,3332.5,409.2,420,2697.8,3316.6,181.7,66.3,15.5
0.387320,417.4,67.3,2721.6,105.3,3320.6,447.5,421.7,2692.8,3313.1,181.5,66.2,14.9
0.389320,417.6,69.0,2716.3,127.6,3293.5,461.7,423.5,2687.5,3309.5,181.3,66,14.2
0.391320,416.4,69.9,2713.0,148.9,3271.0,452.8,425.3,2682.1,3305.7,181.1,65.8,13.6
0.393320,414.2,68.3,2713.9,160.9,3264.9,447.7,427.2,2676.5,3301.7,180.9,65.7,13.2
0.395320,412.2,64.9,2713.8,168.7,3274.4,463.6,429.2,2670.7,3297.7,180.7,65.6,13.3
0.397320,411.5,62.1,2707.4,177.6,3297.4,492.7,431.2,2664.8,3293.5,180.4,65.6,13.8
0.399320,412.0,60.7,2690.8,191.3,3332.8,516.0,433.3,2658.7,3289.2,180.2,65.6,14.6
0.401320,412.9,60.1,2663.2,207.4,3365.6,513.0,435.4,2652.5,3284.9,180,65.6,15.4
0.403320,413.9,60.2,2633.5,216.1,3380.0,493.1,437.5,2646.2,3280.4,179.8,65.6,15.9
0.405320,416.0,61.8,2612.3,210.5,3378.7,475.1,439.7,2639.8,3275.9,179.6,65.6,15.9
0.407320,420.8,65.3,2605.9,194.4,3380.3,467.5,441.9,2633.3,3271.4,179.4,65.5,15.5
0.409320,429.4,70.7,2610.6,174.0,3401.7,469.1,444.2,2626.7,3266.7,179.1,65.3,14.8
0.411320,440.4,76.2,2621.6,157.4,3431.4,473.9,446.4,2620.1,3262.1,178.9,65.1,14.1
0.413320,450.6,79.6,2635.7,148.4,3434.8,476.2,448.7,2613.5,3257.4,178.7,64.9,13.6
0.415320,459.0,80.4,2649.6,143.3,3402.7,476.3,451,2606.8,3252.7,178.5,64.8,13.3
0.417320,464.2,79.2,2656.8,139.7,3363.6,480.5,453.2,2600.2,3248,178.2,64.7,13.4
0.419320,466.5,76.4,2657.5,139.5,3341.1,506.7,455.5,2593.6,3243.4,178,64.7,13.7
0.421320,466.2,73.3,2653.8,144.5,3344.3,558.0,457.8,2587,3238.7,177.8,64.7,13.9
0.423320,464.8,70.7,2647.2,150.8,3364.7,601.4,460,2580.5,3234.1,177.6,64.8,14
0.425320,463.2,68.1,2640.1,152.8,3381.9,605.0,462.2,2574,3229.6,177.3,64.8,13.8
0.427320,462.3,65.6,2634.9,148.7,3377.1,583.6,464.4,2567.7,3225.1,177.1,64.9,13.3
0.429320,463.0,63.3,2628.2,143.4,3348.4,567.3,466.5,2561.4,3220.7,176.9,64.9,12.6
0.431320,465.6,61.5,2618.2,140.9,3298.0,564.1,468.6,2555.3,3216.4,176.7,64.9,11.9
0.433320,469.7,60.3,2607.4,142.2,3235.5,561.9,470.7,2549.4,3212.2,176.5,64.8,11.6
0.435320,474.5,58.4,2598.3,145.6,3175.4,543.5,472.7,2543.6,3208.1,176.3,64.7,11.7
0.437320,478.7,55.8,2592.4,148.0,3139.8,503.6,474.6,2537.9,3204.1,176.1,64.6,12.2
0.439320,482.2,53.2,2587.4,147.4,3126.1,450.7,476.5,2532.5,3200.3,175.9,64.6,13
0.441320,484.8,51.3,2579.3,143.3,3125.0,407.2,478.3,2527.3,3196.6,175.7,64.5,13.9
0.443320,486.7,50.5,2565.9,136.2,3130.0,382.7,480,2522.4,3193.1,175.5,64.4,14.6
0.445320,488.1,50.3,2545.7,127.3,3136.6,361.8,481.6,2517.6,3189.8,175.3,64.4,15.1
0.447320,488.8,49.7,2522.5,120.2,3136.3,329.0,483.1,2513.2,3186.7,175.2,64.3,15.5
0.449320,488.9,48.3,2498.3,114.0,3127.8,281.7,484.6,2509,3183.7,175,64.2,15.8
0.451320,489.5,46.6,2479.9,107.8,3119.5,239.6,485.9,2505.1,3181,174.8,64.2,16.1
0.453320,490.8,44.9,2470.8,107.7,3116.2,223.0,487.2,2501.4,3178.4,174.7,64.1,16.2
0.455320,492.9,43.5,2468.2,119.1,3116.3,232.1,488.3,2498.1,3176.1,174.6,64,16.2
0.457320,495.1,43.0,2468.3,136.5,3118.6,253.2,489.3,2495.2,3174,174.4,63.9,16.1
0.459320,496.8,43.2,2466.5,149.6,3123.2,276.1,490.3,2492.5,3172.2,174.3,63.8,15.9
0.461320,497.3,44.0,2457.3,150.9,3127.5,294.8,491.1,2490.2,3170.5,174.2,63.7,15.6
0.463320,496.7,44.7,2436.9,144.2,3123.2,299.0,491.7,2488.2,3169.1,174.1,63.6,15.2
0.465320,495.4,45.2,2407.0,133.4,3106.0,275.2,492.3,2486.6,3168,174,63.5,15.8
0.467320,494.2,45.3,2381.5,120.9,3088.8,239.7,492.7,2485.3,3167.1,173.9,63.4,21
0.469320,492.7,44.2,2366.9,111.5,3082.7,221.5,493,2484.4,3166.5,173.8,63.2,27
0.471320,490.6,42.0,2361.9,109.3,3091.6,230.3,493.2,2483.9,3166.1,173.8,63,28.8
0.473320,488.2,40.2,2359.4,112.8,3111.0,256.8,493.3,2483.7,3166,173.7,62.7,21.3
