time,f1,b1,f2,b2,f3,b3,f1p,f2p,f3p,f0,intensity,harmonicity
0.025905,470.3,13.0,2679.1,186.6,3220.2,723.5,470,2736.3,3154.4,236.9,74.8,17.9
0.027905,469.8,11.6,2708.5,193.2,3175.0,800.3,470,2736.3,3154.3,236.8,75.1,19.3
0.029905,469.6,10.9,2724.6,195.5,3132.9,761.7,469.9,2736.2,3154.3,236.6,75.4,20.7
0.031905,469.6,10.6,2726.9,195.5,3115.5,642.9,469.7,2736.1,3154.2,236.4,75.7,22.1
0.033905,469.5,10.5,2722.9,189.6,3116.2,529.5,469.6,2735.9,3154,236.2,76,23.4
0.035905,469.4,10.4,2720.5,178.5,3124.9,467.5,469.3,2735.8,3153.9,236.1,76.2,24.5
0.037905,469.1,10.2,2721.9,166.6,3134.7,448.2,469.1,2735.6,3153.8,235.9,76.4,25.4
0.039905,468.9,10.0,2726.1,155.5,3143.8,446.3,468.8,2735.5,3153.7,235.7,76.6,26.1
0.041905,468.8,9.7,2731.1,147.1,3151.0,440.9,468.5,2735.3,3153.6,235.5,76.8,26.7
0.043905,468.6,9.5,2736.5,140.4,3158.5,424.8,468.2,2735.2,3153.5,235.3,77,27.1
0.045905,468.4,9.4,2742.8,135.5,3168.1,412.6,467.8,2735.1,3153.5,235.1,77.1,27.5
0.047905,468.1,9.3,2749.5,131.8,3178.3,419.4,467.4,2735,3153.6,234.9,77.2,27.8
0.049905,467.6,9.3,2756.2,128.0,3187.2,452.6,467.1,2735,3153.8,234.7,77.3,28
0.051905,467.0,9.2,2761.5,123.9,3192.6,509.8,466.7,2735.1,3154.1,234.5,77.4,28
0.053905,466.1,9.2,2765.0,120.3,3192.0,579.8,466.2,2735.3,3154.5,234.3,77.5,28.1
0.055905,465.1,9.3,2765.2,121.3,3173.9,626.8,465.8,2735.5,3155,234.1,77.5,28.1
0.057905,464.3,9.4,2761.9,130.4,3137.6,622.6,465.4,2735.8,3155.6,233.9,77.6,28.2
0.059905,463.6,9.6,2755.6,146.1,3106.4,571.6,465,2736.3,3156.4,233.7,77.7,28.3
0.061905,463.1,9.7,2748.4,158.8,3105.2,512.1,464.6,2736.8,3157.4,233.5,77.8,28.5
0.063905,463.0,9.7,2743.1,164.0,3127.6,468.0,464.2,2737.5,3158.5,233.3,77.9,28.6
0.065905,463.0,9.7,2740.6,163.1,3155.1,443.5,463.8,2738.2,3159.8,233.1,78,28.7
0.067905,463.1,9.7,2739.4,159.0,3175.8,429.8,463.4,2739.1,3161.3,232.9,78.1,28.8
0.069905,463.2,9.6,2739.6,153.2,3188.2,417.7,463,2740.1,3162.9,232.8,78.3,29
0.071905,463.2,9.4,2742.0,147.1,3192.8,407.2,462.7,2741.2,3164.7,232.6,78.4,29.1
0.073905,463.0,9.2,2746.3,140.8,3193.5,404.4,462.3,2742.3,3166.7,232.4,78.5,29.3
0.075905,462.7,8.9,2750.9,136.4,3191.1,412.0,462,2743.6,3168.9,232.3,78.6,29.4
0.077905,462.4,8.7,2754.1,135.6,3181.9,413.7,461.7,2745,3171.2,232.1,78.7,29.5
0.079905,462.2,8.7,2755.7,136.8,3164.8,389.8,461.5,2746.4,3173.6,232,78.7,29.6
0.081905,462.0,9.0,2756.4,136.5,3151.2,350.4,461.2,2748,3176.2,231.8,78.8,29.7
0.083905,461.9,9.3,2757.2,133.3,3148.0,317.5,461,2749.5,3178.8,231.7,78.8,29.8
0.085905,461.7,9.4,2759.1,130.1,3156.3,304.3,460.8,2751.1,3181.6,231.5,78.8,29.9
0.087905,461.3,9.4,2761.8,130.3,3171.6,306.4,460.6,2752.7,3184.4,231.4,78.8,30.1
0.089905,460.9,9.2,2765.1,136.2,3188.4,315.7,460.4,2754.4,3187.3,231.3,78.8,30.3
0.091905,460.5,8.9,2768.1,148.0,3199.3,328.0,460.2,2756,3190.3,231.2,78.8,30.5
0.093905,460.2,8.6,2768.9,163.3,3202.7,338.2,460.1,2757.6,3193.2,231,78.8,30.7
0.095905,460.0,8.5,2765.3,174.0,3199.4,337.2,459.9,2759.2,3196.1,230.9,78.8,30.8
0.097905,459.9,8.6,2758.9,174.7,3194.2,328.1,459.8,2760.7,3199,230.8,78.8,30.7
0.099905,459.8,8.8,2752.9,166.1,3190.3,318.6,459.7,2762.2,3201.8,230.7,78.8,30.4
0.101905,459.6,9.0,2749.8,153.1,3190.4,313.8,459.6,2763.6,3204.6,230.6,78.8,30.1
0.103905,459.4,9.2,2749.3,138.9,3197.3,313.3,459.5,2765,3207.3,230.5,78.7,29.7
0.105905,459.2,9.3,2749.6,127.4,3210.1,315.1,459.4,2766.2,3209.9,230.4,78.7,29.4
0.107905,459.0,9.4,2748.4,120.6,3220.6,315.9,459.3,2767.4,3212.3,230.3,78.7,29.2
0.109905,458.7,9.5,2744.9,117.8,3223.2,313.6,459.1,2768.6,3214.6,230.2,78.6,29.1
0.111905,458.3,9.6,2740.5,116.9,3219.0,305.6,459,2769.6,3216.7,230.1,78.6,29
0.113905,458.0,9.7,2736.8,114.1,3214.5,290.6,458.9,2770.5,3218.7,230,78.6,29
0.115905,457.8,9.8,2735.3,107.3,3215.4,275.3,458.8,2771.4,3220.6,230,78.6,29
0.117905,457.6,9.9,2737.6,99.1,3224.0,273.0,458.6,2772.3,3222.2,229.9,78.6,29.2
0.119905,457.4,9.9,2742.8,92.5,3238.1,287.8,458.5,2773.1,3223.7,229.8,78.5,29.4
0.121905,457.3,9.9,2748.4,90.2,3249.8,313.7,458.3,2773.8,3225.1,229.7,78.5,29.7
0.123905,457.3,9.8,2753.3,92.8,3252.1,340.8,458.1,2774.6,3226.2,229.6,78.5,30
0.125905,457.3,9.8,2757.0,100.6,3240.5,351.3,457.9,2775.3,3227.2,229.5,78.5,30.3
0.127905,457.4,9.7,2760.0,110.5,3222.8,339.1,457.7,2776.1,3228.1,229.5,78.5,30.4
0.129905,457.4,9.6,2764.0,118.7,3212.0,324.0,457.4,2777,3228.8,229.4,78.4,30.6
0.131905,457.4,9.4,2770.6,122.9,3215.3,328.8,457.2,2777.9,3229.5,229.3,78.4,30.8
0.133905,457.3,9.3,2780.0,125.0,3229.2,353.9,456.9,2778.9,3230,229.2,78.4,30.9
0.135905,457.2,9.2,2791.1,127.0,3244.1,384.7,456.6,2780,3230.4,229.1,78.4,30.9
0.137905,456.9,9.1,2802.1,129.5,3250.6,404.6,456.4,2781.2,3230.8,229,78.3,30.7
0.139905,456.6,9.0,2812.1,130.6,3247.6,405.0,456.1,2782.7,3231.2,229,78.3,30.4
0.141905,456.3,9.0,2819.2,128.8,3240.8,389.9,455.8,2784.3,3231.5,228.9,78.3,30
0.143905,456.0,8.9,2825.4,125.6,3234.8,374.0,455.4,2786.1,3231.9,228.8,78.3,29.6
0.145905,455.7,8.7,2831.1,124.2,3229.0,370.1,455.1,2788.1,3232.2,228.7,78.3,29.2
0.147905,455.3,8.4,2835.5,126.2,3220.7,379.3,454.8,2790.4,3232.7,228.6,78.2,29.1
0.149905,454.9,8.3,2837.6,131.1,3210.0,395.2,454.5,2792.9,3233.2,228.5,78.2,29.1
0.151905,454.5,8.2,2836.4,135.5,3205.7,404.2,454.2,2795.7,3233.8,228.5,78.2,29.1
0.153905,454.1,8.1,2832.5,136.5,3214.4,399.1,453.9,2798.8,3234.4,228.4,78.2,29.2
0.155905,453.8,8.1,2829.3,135.0,3231.2,391.7,453.6,2802.1,3235.3,228.3,78.2,29.4
0.157905,453.5,8.0,2829.4,133.8,3246.7,399.7,453.3,2805.7,3236.2,228.2,78.1,29.4
0.159905,453.3,7.9,2831.4,133.2,3257.4,425.6,453,2809.5,3237.3,228.2,78.1,29.6
0.161905,453.0,7.7,2832.1,132.9,3259.9,454.4,452.7,2813.6,3238.5,228.1,78.1,29.7
0.163905,452.8,7.7,2830.1,133.5,3253.9,464.3,452.5,2817.9,3239.9,228,78,29.8
0.165905,452.5,7.8,2825.8,135.0,3242.0,440.7,452.2,2822.4,3241.5,228,78,29.9
0.167905,452.3,8.0,2820.2,135.8,3229.8,391.4,452,2827,3243.2,227.9,77.9,29.8
0.169905,452.1,8.4,2815.4,136.0,3221.8,344.1,451.8,2831.8,3245.1,227.9,77.8,29.7
0.171905,452.0,8.5,2815.0,138.3,3223.9,325.1,451.6,2836.8,3247.1,227.8,77.8,29.6
0.173905,451.8,8.5,2819.8,142.9,3235.8,327.5,451.5,2841.8,3249.2,227.8,77.7,29.3
0.175905,451.6,8.4,2828.7,148.5,3248.3,342.2,451.4,2846.8,3251.5,227.7,77.6,29
0.177905,451.4,8.2,2839.3,153.9,3252.0,369.4,451.3,2851.8,3253.9,227.7,77.5,28.7
0.179905,451.1,8.0,2850.0,156.8,3245.8,411.0,451.2,2856.8,3256.3,227.7,77.3,28.2
0.181905,450.8,8.1,2856.2,155.8,3234.4,448.6,451.1,2861.7,3258.8,227.6,77.2,27.6
0.183905,450.6,8.4,2856.3,153.3,3229.9,465.9,451.1,2866.3,3261.3,227.6,77.1,27
0.185905,450.4,8.7,2851.9,151.6,3242.3,470.0,451.1,2870.8,3263.8,227.6,77,26.5
0.187905,450.1,8.8,2843.8,152.3,3261.3,459.8,451.1,2875.1,3266.3,227.6,76.8,26.3
0.189905,450.0,8.9,2833.6,153.3,3276.7,434.3,451.2,2879,3268.7,227.6,76.7,26.2
0.191905,450.0,9.0,2825.2,153.7,3286.8,399.8,451.2,2882.5,3271.1,227.6,76.6,26.3
0.193905,450.3,9.2,2821.9,155.8,3292.3,368.3,451.3,2885.7,3273.3,227.6,76.5,26.4
0.195905,450.5,9.3,2826.8,162.7,3292.1,355.2,451.4,2888.3,3275.4,227.6,76.4,26.4
0.197905,450.8,9.3,2842.8,171.9,3286.8,376.7,451.5,2890.5,3277.3,227.7,76.3,26.4
0.199905,451.1,9.2,2868.1,172.6,3283.1,435.8,451.6,2892.2,3279,227.7,76.2,26.3
0.201905,451.4,9.1,2890.4,158.5,3292.2,511.8,451.8,2893.3,3280.5,227.7,76.1,26.2
0.203905,451.7,8.9,2904.2,139.6,3313.9,579.9,451.9,2893.8,3281.8,227.7,76,26
0.205905,452.1,8.8,2910.1,127.5,3332.5,617.1,452.1,2893.8,3282.8,227.7,75.9,26
0.207905,452.4,8.8,2911.4,123.4,3337.6,628.0,452.2,2893.1,3283.5,227.7,75.8,26
0.209905,452.7,8.9,2910.2,124.3,3330.1,625.9,452.4,2891.7,3283.9,227.7,75.7,26.2
0.211905,453.0,9.1,2907.9,128.5,3312.0,609.9,452.5,2889.8,3284,227.8,75.5,26.4
0.213905,453.3,9.5,2905.1,135.8,3286.8,567.9,452.7,2887.2,3283.8,227.8,75.4,26.6
0.215905,453.7,10.2,2901.7,145.4,3265.2,503.2,452.9,2884,3283.3,227.8,75.3,26.8
0.217905,454.0,10.8,2899.3,153.0,3264.0,460.5,453,2880.2,3282.4,227.8,75.2,26.9
0.219905,454.1,11.2,2896.7,157.4,3280.8,453.6,453.2,2875.8,3281.3,227.8,75.2,26.8
0.221905,454.1,11.3,2889.0,157.7,3299.6,464.7,453.3,2870.9,3279.9,227.7,75.1,26.7
0.223905,453.9,11.2,2878.4,153.8,3303.7,479.3,453.4,2865.6,3278.2,227.7,75.1,26.6
0.225905,453.7,11.0,2871.5,149.0,3287.1,497.5,453.6,2859.7,3276.2,227.7,75.2,26.5
0.227905,453.5,10.7,2870.7,147.9,3258.8,511.8,453.7,2853.5,3274,227.7,75.2,26.4
0.229905,453.4,10.4,2871.5,150.1,3231.3,506.9,453.8,2847,3271.6,227.6,75.3,26.3
0.231905,453.6,10.1,2868.4,152.3,3214.6,468.9,453.9,2840.2,3269,227.6,75.4,26.3
0.233905,453.8,9.9,2862.0,150.7,3207.8,417.0,454,2833.2,3266.2,227.5,75.5,26.2
0.235905,454.1,9.5,2855.8,144.5,3204.4,367.2,454.1,2826.1,3263.4,227.5,75.7,26
0.237905,454.3,9.2,2851.1,136.5,3201.6,328.2,454.2,2818.9,3260.4,227.4,75.8,25.8
0.239905,454.5,8.9,2845.8,128.7,3200.7,297.4,454.2,2811.7,3257.4,227.4,76,25.4
0.241905,454.8,8.8,2838.7,122.8,3205.1,275.0,454.3,2804.6,3254.4,227.3,76.2,24.9
0.243905,455.0,8.7,2829.4,118.1,3216.6,256.1,454.3,2797.7,3251.4,227.2,76.4,24.5
0.245905,455.3,8.6,2816.6,113.7,3235.3,234.8,454.4,2791,3248.5,227.1,76.5,24.1
0.247905,455.4,8.5,2802.4,111.0,3255.7,215.0,454.4,2784.6,3245.7,227,76.7,23.8
0.249905,455.5,8.4,2788.8,111.0,3272.6,201.0,454.4,2778.6,3243,226.9,76.8,23.7
0.251905,455.3,8.1,2779.4,113.8,3280.2,198.9,454.5,2773,3240.5,226.8,76.9,23.6
0.253905,455.0,7.8,2771.2,119.3,3278.0,205.9,454.5,2768,3238.2,226.7,77.1,23.6
0.255905,454.8,7.7,2759.5,125.3,3267.2,209.9,454.5,2763.5,3236.2,226.6,77.1,23.5
0.257905,454.5,7.7,2743.9,129.9,3255.9,204.0,454.5,2759.6,3234.4,226.5,77.2,23.4
0.259905,454.3,7.9,2726.0,129.6,3249.9,189.6,454.5,2756.3,3232.9,226.4,77.2,23.3
0.261905,453.9,8.4,2711.0,120.7,3249.3,173.2,454.5,2753.7,3231.7,226.3,77.2,23.2
0.263905,453.5,9.1,2699.1,105.4,3249.6,161.0,454.5,2751.9,3230.9,226.2,77.2,23.1
0.265905,452.8,10.0,2689.9,90.5,3247.1,158.1,454.5,2750.8,3230.4,226.1,77.2,23
0.267905,452.0,10.9,2682.2,81.1,3239.7,162.3,454.5,2750.4,3230.2,226,77.1,22.8
