time,f1,b1,f2,b2,f3,b3,f1p,f2p,f3p,f0,intensity,harmonicity
0.025590,548.9,108.3,2170.5,128.9,3062.9,307.4,575.4,2251.7,3048.5,230.7,75.6,23.4
0.027590,550.3,108.7,2193.5,140.9,3077.3,285.6,575.9,2252.6,3049.4,230.7,75.6,23.7
0.029590,553.0,109.6,2220.1,144.6,3091.7,258.7,576.7,2254.1,3050.9,230.7,75.6,24
0.031590,557.5,111.0,2243.3,138.3,3099.9,238.8,577.8,2256.2,3053,230.6,75.7,24.1
0.033590,564.6,112.8,2260.3,122.7,3099.3,229.6,579.2,2258.9,3055.7,230.5,75.7,24.2
0.035590,572.9,113.9,2269.4,105.2,3092.1,231.1,580.9,2262.2,3059,230.5,75.7,24.2
0.037590,580.8,114.0,2275.2,90.2,3086.6,235.9,582.9,2266,3062.8,230.4,75.8,24.3
0.039590,588.1,113.3,2281.6,77.8,3089.7,235.5,585.1,2270.3,3067.1,230.3,75.8,24.3
0.041590,593.5,112.2,2288.9,69.4,3101.0,224.2,587.6,2275.1,3071.9,230.3,75.9,24.2
0.043590,597.6,111.3,2297.0,64.2,3112.8,206.0,590.3,2280.4,3077.1,230.2,75.9,24.1
0.045590,600.9,110.5,2305.0,61.3,3121.4,187.9,593.1,2286.1,3082.8,230.1,76,23.9
0.047590,604.0,109.8,2312.3,60.3,3127.0,175.2,596.2,2292.2,3088.8,230,76.1,23.4
0.049590,607.5,108.2,2318.6,61.2,3129.6,170.5,599.5,2298.7,3095.1,229.9,76.2,22.9
0.051590,611.1,105.6,2324.3,64.4,3129.7,173.6,602.8,2305.5,3101.7,229.8,76.2,22.2
0.053590,614.7,102.4,2329.9,69.8,3129.7,180.9,606.3,2312.5,3108.6,229.7,76.3,21.7
0.055590,618.9,98.8,2335.8,76.8,3128.5,190.1,609.9,2319.8,3115.6,229.6,76.4,21.2
0.057590,623.9,95.2,2340.3,82.6,3119.8,200.6,613.5,2327.3,3122.8,229.5,76.4,20.9
0.059590,629.6,91.2,2343.1,86.7,3101.7,213.2,617.1,2334.9,3130.1,229.4,76.5,20.6
0.061590,635.1,86.8,2345.1,91.3,3081.2,226.3,620.7,2342.7,3137.4,229.2,76.6,20.4
0.063590,639.7,82.1,2347.5,98.4,3068.3,238.5,624.3,2350.5,3144.7,229.1,76.7,20.3
0.065590,643.3,77.9,2351.4,108.3,3068.3,252.1,627.8,2358.3,3151.9,229,76.7,20.4
0.067590,645.6,74.4,2358.7,118.4,3080.5,270.0,631.3,2366.1,3159.1,228.8,76.8,20.7
0.069590,646.8,72.0,2369.8,124.7,3099.5,287.7,634.7,2373.9,3166.1,228.7,76.9,21.3
0.071590,647.7,70.1,2383.2,125.4,3118.5,297.0,637.9,2381.5,3172.9,228.5,76.9,22
0.073590,648.7,68.8,2394.3,123.0,3127.2,295.6,641,2389,3179.5,228.4,77,22.6
0.075590,649.7,67.7,2403.1,121.3,3127.3,293.2,643.9,2396.4,3185.8,228.2,77,22.9
0.077590,650.7,66.6,2411.0,121.2,3125.8,295.1,646.6,2403.5,3191.8,228.1,77.1,22.9
0.079590,651.8,65.2,2418.9,120.7,3130.4,300.5,649.1,2410.3,3197.4,227.9,77.1,22.6
0.081590,653.1,63.5,2427.1,118.1,3145.1,308.0,651.4,2416.9,3202.7,227.7,77.2,22.2
0.083590,654.1,61.8,2433.8,113.1,3166.1,316.5,653.5,2423.2,3207.6,227.6,77.2,22
0.085590,654.2,60.4,2437.6,108.3,3184.4,324.6,655.3,2429.2,3212,227.4,77.2,21.9
0.087590,653.8,59.2,2440.5,105.1,3197.8,329.2,656.8,2434.8,3216,227.2,77.3,22.2
0.089590,653.2,57.9,2444.3,103.3,3208.9,327.5,658.1,2440,3219.6,227,77.3,22.6
0.091590,652.8,56.3,2449.0,101.2,3220.2,319.7,659.2,2444.9,3222.6,226.8,77.4,23.2
0.093590,652.6,54.7,2453.6,98.6,3231.4,311.2,660,2449.3,3225.2,226.7,77.4,23.7
0.095590,652.1,53.0,2456.8,97.4,3240.7,309.3,660.5,2453.4,3227.3,226.5,77.4,24.2
0.097590,651.4,51.5,2458.3,98.4,3246.6,316.7,660.8,2457,3228.9,226.3,77.4,24.5
0.099590,650.9,50.1,2458.4,99.2,3247.4,326.6,660.8,2460.2,3230,226,77.4,24.9
0.101590,651.0,48.9,2458.3,97.1,3242.8,328.5,660.6,2463,3230.7,225.8,77.4,25.2
0.103590,651.5,48.0,2459.2,92.5,3234.9,321.3,660.1,2465.3,3230.8,225.6,77.4,25.4
0.105590,652.1,47.3,2461.5,87.4,3226.7,314.7,659.5,2467.3,3230.5,225.4,77.4,25.5
0.107590,652.3,46.6,2464.8,83.1,3221.6,315.9,658.6,2468.8,3229.8,225.1,77.4,25.4
0.109590,652.1,46.3,2468.1,79.2,3223.3,322.0,657.6,2469.9,3228.6,224.9,77.3,25.1
0.111590,651.8,46.3,2470.7,76.0,3234.6,322.7,656.4,2470.6,3227,224.6,77.3,24.8
0.113590,651.5,46.3,2472.2,74.0,3249.2,311.3,655.1,2470.9,3225.1,224.3,77.2,24.5
0.115590,651.3,46.4,2472.4,72.9,3258.3,291.1,653.6,2470.9,3222.8,224.1,77.2,24.4
0.117590,650.9,46.3,2471.2,71.9,3258.5,273.6,652.1,2470.4,3220.1,223.8,77.1,24.7
0.119590,650.2,46.2,2469.1,70.3,3254.4,263.3,650.5,2469.6,3217.2,223.5,77.1,25.1
0.121590,649.3,46.0,2466.7,68.5,3248.1,260.0,648.8,2468.5,3214,223.2,77,25.6
0.123590,648.6,46.1,2463.9,67.1,3239.2,260.1,647.1,2467.1,3210.6,222.8,77,25.9
0.125590,648.2,46.5,2460.8,66.3,3229.8,261.9,645.5,2465.3,3206.9,222.5,77,25.8
0.127590,647.5,47.2,2457.4,67.0,3224.6,267.3,643.8,2463.2,3203.1,222.1,76.9,25.2
0.129590,646.1,47.9,2454.2,69.1,3225.0,276.7,642.2,2460.9,3199.2,221.7,76.9,24.2
0.131590,644.2,48.3,2451.5,71.9,3231.0,284.5,640.8,2458.3,3195.2,221.3,76.9,23.1
0.133590,642.0,48.1,2449.4,74.6,3241.7,283.0,639.4,2455.4,3191,220.9,76.8,22
0.135590,640.3,47.9,2446.9,76.8,3249.7,277.4,638.1,2452.3,3186.9,220.5,76.8,21.4
0.137590,639.6,48.0,2442.9,78.9,3249.8,280.4,637,2449,3182.7,220,76.8,21.3
0.139590,639.6,48.3,2437.8,82.4,3239.7,299.4,636.1,2445.4,3178.6,219.5,76.9,21.5
0.141590,639.7,48.4,2433.3,88.0,3219.1,329.4,635.4,2441.6,3174.5,219,76.9,21.8
0.143590,639.3,48.4,2429.7,92.6,3192.8,348.9,634.9,2437.6,3170.5,218.5,76.9,22.1
0.145590,639.1,48.4,2425.9,91.7,3170.7,344.4,634.7,2433.4,3166.6,217.9,77,22.1
0.147590,639.1,48.4,2420.9,85.9,3154.5,324.3,634.7,2428.9,3162.8,217.3,77,21.8
0.149590,639.2,48.3,2416.1,80.5,3148.2,304.4,635,2424.3,3159.1,216.7,77,21.3
0.151590,639.1,48.0,2411.6,79.1,3151.4,290.0,635.6,2419.4,3155.6,216.1,77,20.7
0.153590,639.0,47.6,2406.8,82.4,3159.2,281.8,636.4,2414.4,3152.3,215.4,77,20
0.155590,639.1,47.5,2400.6,89.2,3162.1,279.7,637.6,2409.1,3149.1,214.7,76.9,19.2
0.157590,639.5,48.0,2393.1,97.6,3155.9,286.3,639.1,2403.6,3146.2,214,76.7,18.3
0.159590,639.5,49.1,2386.6,106.9,3145.9,304.6,640.9,2397.9,3143.4,213.2,76.5,17.1
0.161590,638.5,50.9,2383.7,116.5,3142.9,331.1,643,2391.9,3140.8,212.5,76.2,16
0.163590,636.8,53.7,2383.3,125.6,3147.5,349.4,645.4,2385.6,3138.5,211.7,75.8,14.9
0.165590,635.5,58.1,2381.3,133.2,3148.5,344.6,648.1,2379.1,3136.3,210.8,75.4,14.1
0.167590,635.7,65.5,2376.5,138.0,3140.9,324.5,651.1,2372.3,3134.4,210,74.9,13.7
0.169590,638.0,76.5,2370.2,139.3,3128.2,307.5,654.4,2365.3,3132.6,209.1,74.4,13.5
0.171590,642.6,90.7,2363.6,138.7,3113.2,305.4,658,2357.9,3131.1,208.2,73.9,13.4
0.173590,648.4,106.5,2355.9,137.7,3095.8,318.9,661.9,2350.1,3129.7,207.3,73.4,13.4
0.175590,654.1,122.0,2346.6,135.5,3077.6,338.2,666,2342,3128.5,206.3,73,13.4
0.177590,660.0,134.5,2336.5,132.6,3063.8,355.4,670.4,2333.6,3127.5,205.3,72.7,13.3
0.179590,667.9,141.9,2325.5,130.9,3053.9,373.3,675,2324.8,3126.7,204.4,72.5,13.3
0.181590,678.4,143.9,2312.5,131.8,3040.4,394.8,679.8,2315.6,3126,203.4,72.3,13.3
0.183590,689.5,142.4,2299.4,137.2,3025.1,425.6,684.8,2306,3125.4,202.4,72.2,13.2
0.185590,698.2,141.8,2290.1,149.9,3016.8,481.4,690,2296,3125,201.3,72.1,13.2
0.187590,705.2,143.0,2284.6,168.7,3018.0,562.5,695.3,2285.5,3124.6,200.3,71.9,13
0.189590,712.0,144.2,2281.0,190.5,3033.5,652.8,700.8,2274.6,3124.4,199.3,71.7,12.8
0.191590,718.5,144.0,2279.2,213.2,3069.4,742.4,706.3,2263.3,3124.3,198.3,71.6,12.6
0.193590,724.4,142.9,2279.7,232.8,3123.8,831.2,712,2251.5,3124.2,197.2,71.5,12.4
0.195590,730.6,141.7,2281.0,244.4,3185.3,919.5,717.6,2239.3,3124.2,196.2,71.3,12.2
0.197590,736.5,140.8,2277.8,251.4,3234.4,993.9,723.3,2226.5,3124.3,195.2,71.2,12.1
0.199590,740.5,141.2,2265.7,261.6,3242.9,1011.0,729.1,2213.4,3124.4,194.1,71.1,11.9
0.201590,743.2,143.2,2246.8,271.4,3213.9,956.5,734.7,2199.8,3124.6,193.1,70.9,11.7
0.203590,748.6,144.5,2223.9,274.4,3179.4,878.2,740.4,2185.7,3124.8,192.1,70.7,11.6
0.205590,758.7,142.4,2201.2,275.5,3161.2,833.9,746,2171.2,3125,191.1,70.5,11.6
0.207590,771.2,137.9,2173.6,284.2,3154.0,824.2,751.5,2156.3,3125.3,190.2,70.2,11.8
0.209590,781.6,135.1,2139.2,299.4,3143.6,838.2,756.9,2140.9,3125.6,189.2,70,12.2
0.211590,787.1,138.7,2108.5,308.5,3108.1,885.1,762.1,2125.2,3125.9,188.2,69.8,12.7
0.213590,787.5,148.4,2087.3,301.8,3036.6,963.4,767.2,2109.1,3126.3,187.3,69.6,13
0.215590,783.8,158.7,2067.2,278.9,2947.7,1042.5,772.2,2092.7,3126.8,186.4,69.5,13.1
0.217590,778.6,164.3,2047.0,245.8,2872.3,1111.2,777,2075.9,3127.3,185.5,69.4,12.7
0.219590,774.3,165.4,2031.6,213.8,2853.0,1183.3,781.5,2058.9,3127.9,184.6,69.3,12.1
0.221590,770.7,166.9,2021.5,193.8,2926.1,1314.9,785.9,2041.6,3128.5,183.7,69.3,11.3
0.223590,767.3,172.6,2012.6,188.9,3067.5,1541.3,790,2024.1,3129.2,182.9,69.1,10.6
0.225590,769.9,185.5,2000.4,184.9,3203.4,1502.1,793.9,2006.4,3130.1,182.1,69,10.2
0.227590,783.1,202.0,1984.8,173.2,3227.3,1054.1,797.6,1988.6,3131,181.3,68.9,10.1
0.229590,800.8,210.1,1966.6,166.1,3228.4,795.4,801,1970.7,3132.1,180.5,68.8,10.3
0.231590,811.4,213.3,1946.3,172.3,3243.6,708.4,804.2,1952.7,3133.4,179.7,68.7,10.5
0.233590,811.6,221.9,1925.2,190.9,3257.2,729.0,807.1,1934.7,3134.8,179,68.8,10.7
0.235590,803.9,233.3,1902.9,212.9,3257.6,794.6,809.8,1916.7,3136.5,178.3,68.7,10.8
0.237590,794.5,241.5,1879.8,225.5,3237.7,816.2,812.2,1898.9,3138.3,177.6,68.7,10.7
0.239590,787.3,248.3,1858.3,227.4,3219.6,771.6,814.3,1881.1,3140.4,176.9,68.8,10.6
0.241590,783.0,253.7,1838.3,225.3,3224.9,725.5,816.2,1863.5,3142.7,176.2,68.6,10.4
0.243590,782.5,255.3,1817.3,222.2,3253.7,708.5,817.8,1846.1,3145.3,175.6,68.4,10.2
0.245590,785.3,254.9,1794.1,217.7,3299.4,710.9,819.2,1829,3148.1,175,68.2,9.7
0.247590,792.0,259.3,1773.3,210.7,3349.6,708.8,820.4,1812.1,3151.3,174.4,67.9,9.1
0.249590,804.2,277.4,1762.6,203.2,3391.3,698.9,821.3,1795.6,3154.8,173.8,67.7,8.2
0.251590,822.9,311.4,1761.5,197.6,3417.7,697.3,822,1779.5,3158.6,173.3,67.6,7.3
0.253590,842.1,346.7,1760.9,194.3,3418.7,714.0,822.5,1763.8,3162.8,172.8,67.8,6.4
0.255590,853.5,363.9,1753.8,192.2,3369.7,747.3,822.8,1748.6,3167.3,172.3,67.8,5.9
0.257590,857.5,358.9,1741.3,188.7,3288.3,726.9,822.9,1733.8,3172.2,171.8,67.8,5.9
0.259590,851.6,340.9,1726.2,188.2,3256.8,714.5,822.8,1719.6,3177.4,171.4,67.9,6.1
0.261590,836.8,313.1,1709.0,191.8,3282.4,839.5,822.5,1705.9,3183,170.9,67.4,6.4
0.263590,825.2,281.8,1692.8,192.0,3347.2,1237.7,822.1,1692.8,3189,170.5,67,6.7
0.265590,819.8,259.4,1680.9,187.3,3140.9,2007.6,821.6,1680.3,3195.3,170.1,66.7,6.9
0.267590,815.0,250.1,1671.6,182.8,2829.5,2062.5,820.9,1668.3,3202,169.8,66,6.9
0.269590,808.0,254.3,1661.9,183.6,2703.7,2010.2,820.1,1657,3209.1,169.5,65.5,6.7
0.271590,801.7,270.4,1652.5,191.2,2661.6,2082.4,819.2,1646.4,3216.4,169.1,65.2,6.6
0.273590,800.1,294.5,1645.6,201.9,2678.2,2245.7,818.3,1636.3,3224.1,168.9,64.9,6.5
0.275590,804.7,321.5,1642.1,207.5,2928.8,2395.4,817.2,1627,3232.1,168.6,64.6,6.6
0.277590,807.3,338.2,1636.9,209.4,3181.6,2138.6,816.1,1618.2,3240.4,168.4,64.3,7
0.279590,802.8,338.4,1626.6,211.4,3200.0,1819.9,814.9,1610.1,3248.9,168.1,64.1,7.7
0.281590,798.8,333.5,1615.7,213.1,3213.5,1491.1,813.7,1602.7,3257.6,167.9,63.7,8.4
0.283590,797.3,327.2,1606.6,209.9,3245.6,1229.5,812.4,1595.8,3266.5,167.8,63.4,9
0.285590,796.3,320.8,1599.8,197.9,3285.0,1045.1,811.2,1589.5,3275.6,167.6,63.2,9.5
0.287590,795.4,322.0,1596.1,183.3,3332.9,896.2,809.9,1583.9,3284.8,167.4,63.1,9.8
0.289590,798.7,337.2,1596.6,174.9,3379.9,734.4,808.6,1578.8,3294.2,167.3,63,9.9
0.291590,810.8,369.4,1602.3,176.7,3408.4,578.0,807.3,1574.2,3303.5,167.2,63,10
0.293590,837.3,411.8,1612.4,185.7,3425.5,458.9,806.1,1570.2,3312.9,167.1,62.9,9.9
0.295590,868.3,437.8,1618.5,196.0,3443.7,377.6,804.8,1566.6,3322.2,167,62.8,9.8
0.297590,870.2,452.1,1607.2,211.3,3470.7,321.8,803.6,1563.5,3331.4,166.9,62.9,9.4
0.299590,845.0,459.2,1581.2,224.2,3495.1,283.2,802.5,1560.9,3340.5,166.9,63.1,8.9
0.301590,824.5,448.9,1560.9,222.9,3510.7,261.8,801.3,1558.6,3349.5,166.8,63.3,8.3
0.303590,819.7,435.2,1556.6,213.2,3407.5,3866.3,800.2,1556.7,3358.2,166.8,63.7,7.7
0.305590,822.2,422.6,1560.6,199.0,2867.2,3437.9,799.2,1555.1,3366.7,166.7,63.9,7
0.307590,824.6,410.7,1564.1,181.4,2999.3,3285.5,798.2,1553.9,3374.9,166.7,63.9,6.4
0.309590,824.7,410.2,1565.5,166.6,3481.5,333.2,797.3,1552.8,3382.7,166.7,64,5.7
0.311590,823.3,426.7,1566.0,160.1,3428.7,359.3,796.4,1552.1,3390.1,166.6,63.8,5
0.313590,823.3,442.5,1566.4,157.9,3396.3,346.7,795.6,1551.5,3397.1,166.6,63.6,4.4
0.315590,823.5,441.6,1565.6,153.9,3393.3,363.3,794.9,1551,3403.7,166.6,63.6,4
0.317590,821.0,430.8,1561.7,148.0,3419.5,453.8,794.2,1550.8,3409.7,166.5,63.6,3.9
0.319590,812.1,424.8,1553.8,144.9,3525.6,694.6,793.6,1550.6,3415.2,166.5,63.7,4
0.321590,796.2,434.5,1542.3,148.5,3511.8,2070.7,793.1,1550.5,3420.1,166.5,63.8,4.2
0.323590,779.4,461.1,1528.7,157.6,3131.0,2926.7,792.6,1550.5,3424.4,166.5,63.9,4.5
0.325590,768.5,483.2,1515.4,160.2,3490.9,3007.5,792.2,1550.5,3428.1,166.5,63.8,4.6
0.327590,761.1,489.4,1507.9,153.1,3700.3,660.6,791.9,1550.5,3431.2,166.4,63.4,4.7
0.329590,754.4,495.2,1508.3,144.3,3557.0,468.2,791.7,1550.5,3433.6,166.4,63.1,4.8
0.331590,744.5,498.0,1511.6,136.2,3513.5,362.5,791.5,1550.6,3435.3,166.4,62.7,4.9
0.333590,727.7,496.3,1515.5,130.9,3486.4,339.3,791.4,1550.6,3436.3,166.4,62.3,4.9
0.335590,707.9,493.0,1520.9,132.5,3456.5,358.2,791.4,1550.6,3436.7,166.3,62.3,4.8
