time,f1,b1,f2,b2,f3,b3,f1p,f2p,f3p,f0,intensity,harmonicity
0.025363,491.8,64.7,1750.7,297.2,2542.2,187.1,494.3,1743.6,2484,162.6,42.7,0.2
0.027363,495.5,54.4,1751.3,287.6,2505.1,219.0,494.7,1745.6,2486.9,162.1,43.4,1.4
0.029363,499.5,43.0,1757.2,267.9,2485.7,194.1,495.4,1748.8,2491.5,161.4,44,3.3
0.031363,502.5,35.1,1759.2,228.2,2484.5,174.9,496.5,1753.1,2497.7,160.8,44.7,5.3
0.033363,504.5,30.7,1756.8,184.6,2489.3,167.3,497.9,1758.4,2505,160.1,45.2,7.1
0.035363,505.8,29.5,1753.7,161.1,2495.9,171.9,499.7,1764.4,2513.1,159.3,45.7,8.2
0.037363,506.3,30.6,1753.1,158.4,2502.9,182.8,501.8,1771,2521.6,158.6,46,8.3
0.039363,505.5,34.3,1759.0,177.7,2507.8,196.3,504.4,1777.8,2530.1,157.8,46.1,7.7
0.041363,503.8,40.3,1774.7,217.3,2514.3,212.3,507.3,1784.6,2538,156.9,46.1,6.8
0.043363,502.2,49.0,1798.9,273.7,2534.6,230.7,510.6,1791.3,2545.2,156.1,46,6
0.045363,502.5,58.2,1820.6,331.2,2565.4,222.4,514.3,1797.6,2551.2,155.2,45.8,5.7
0.047363,505.7,66.1,1832.8,370.2,2580.2,198.3,518.2,1803.5,2555.8,154.4,45.6,6.1
0.049363,512.0,70.2,1826.0,348.2,2579.7,196.6,522.4,1808.8,2559,153.5,45.4,6.9
0.051363,519.4,70.7,1810.0,285.5,2569.9,218.4,526.7,1813.4,2560.6,152.6,45.2,7.8
0.053363,527.0,72.2,1798.5,235.6,2551.1,250.2,531,1817.3,2560.8,151.7,45,8.7
0.055363,533.8,74.9,1794.4,220.4,2538.9,259.5,535.2,1820.6,2559.6,150.8,44.9,9.2
0.057363,541.3,75.1,1796.3,232.2,2544.7,251.8,539.1,1823.2,2557.4,150,44.8,9.2
0.059363,550.8,70.8,1806.3,274.0,2555.1,225.2,542.7,1825.3,2554.3,149.1,44.8,8.9
0.061363,557.8,64.9,1823.8,339.7,2556.6,210.8,545.8,1827,2550.7,148.3,44.8,8.5
0.063363,559.5,59.1,1840.3,399.1,2552.7,208.3,548.3,1828.3,2546.9,147.5,44.8,8.2
0.065363,557.3,54.7,1840.9,397.0,2545.6,199.4,550.1,1829.3,2543.1,146.7,44.8,8.3
0.067363,554.6,52.2,1833.4,348.0,2540.8,182.7,551.1,1830,2539.6,146,44.8,9.1
0.069363,552.2,52.9,1828.1,298.8,2541.0,165.7,551.3,1830.6,2536.5,145.3,44.8,10.3
0.071363,549.7,56.1,1828.3,285.3,2544.5,150.3,550.5,1830.9,2534.1,144.6,44.8,11.7
0.073363,548.2,60.8,1837.1,322.3,2548.4,135.6,548.9,1831,2532.1,144,44.8,12.8
0.075363,547.8,64.4,1860.7,424.5,2551.5,129.3,546.5,1830.7,2530.7,143.4,44.7,13.2
0.077363,546.8,64.8,1899.5,604.4,2556.3,133.7,543.4,1830,2529.5,142.8,44.7,12.5
0.079363,544.5,62.3,1900.6,825.0,2502.6,846.0,539.6,1828.6,2528.4,142.3,44.7,11.2
0.081363,542.1,60.2,1817.4,807.6,2535.7,679.5,535.3,1826.6,2527.1,141.9,44.6,9.5
0.083363,537.5,62.0,1769.1,639.1,2516.1,254.6,530.6,1823.6,2525.1,141.4,44.5,8
0.085363,527.6,66.5,1762.8,502.8,2489.3,234.3,525.8,1819.5,2522.1,141.1,44.4,7.1
0.087363,512.0,68.2,1769.4,382.6,2484.4,207.1,520.9,1814.2,2517.8,140.7,44.4,6.9
0.089363,495.1,63.4,1775.5,283.2,2481.1,184.8,516.1,1807.6,2511.7,140.4,44.3,7
0.091363,486.7,57.3,1778.0,235.5,2478.3,176.2,511.6,1799.5,2503.7,140.2,44.3,7.5
0.093363,486.2,56.2,1778.9,234.2,2482.2,184.3,507.5,1790.1,2493.6,140,44.1,8
0.095363,490.4,63.6,1780.3,282.7,2498.1,208.8,504,1779.3,2481.3,139.8,43.9,8.5
0.097363,497.4,81.1,1783.6,383.7,2528.3,221.2,501.1,1767.3,2466.8,139.6,43.6,9
0.099363,503.9,106.2,1782.9,523.9,2478.8,730.9,498.9,1754.2,2450.3,139.5,43.3,9.6
0.101363,505.1,127.4,1761.1,645.7,2424.3,692.0,497.4,1740.3,2432,139.5,42.9,10.2
0.103363,504.4,145.9,1719.9,704.0,2406.1,590.2,496.7,1725.8,2412.2,139.4,42.6,10.7
0.105363,508.1,161.6,1698.6,700.9,2397.2,519.1,496.6,1711,2391.5,139.4,42.3,11
0.107363,514.7,169.4,1696.8,695.2,2382.8,511.0,497.2,1696.4,2370.4,139.4,42.1,11
0.109363,518.3,168.4,1700.8,721.3,2356.0,555.0,498.3,1682.2,2349.4,139.4,41.9,10.7
0.111363,519.9,169.0,1705.0,782.6,2321.4,603.1,499.9,1668.7,2329,139.4,41.7,10.3
0.113363,521.7,174.7,1698.2,864.9,2294.0,616.6,501.8,1656.4,2309.7,139.5,41.6,9.9
0.115363,520.4,175.8,1674.3,923.5,2288.6,606.2,504,1645.4,2292.2,139.6,41.4,9.6
0.117363,514.3,165.4,1655.7,950.4,2302.3,604.6,506.3,1635.9,2276.6,139.6,41.3,9.5
0.119363,506.3,146.7,1656.1,1015.0,2310.6,608.1,508.7,1628.2,2263.4,139.7,41.3,9.5
0.121363,499.1,128.4,1627.3,1205.8,2267.2,568.4,511,1622.2,2252.8,139.8,41.4,9.6
0.123363,491.2,108.2,1522.8,1362.1,2206.9,459.8,513.2,1618,2244.7,139.9,41.6,9.6
0.125363,485.1,88.2,1502.7,1258.3,2175.0,394.8,515.2,1615.4,2239.1,140,41.9,9.7
0.127363,484.4,73.5,1572.4,985.5,2178.0,397.8,517,1614.3,2235.8,140.1,42.3,9.8
0.129363,491.1,67.1,1627.6,639.5,2231.4,383.8,518.5,1614.5,2234.5,140.2,42.7,9.9
0.131363,501.7,64.3,1630.7,421.1,2259.9,296.8,519.8,1615.7,2234.9,140.3,43.1,10
0.133363,512.0,60.5,1626.3,307.3,2256.3,230.7,520.8,1617.5,2236.6,140.4,43.4,10
0.135363,519.9,57.3,1624.8,252.7,2247.6,198.1,521.7,1619.8,2239,140.5,43.6,9.9
0.137363,527.9,54.8,1624.9,221.6,2241.3,188.4,522.3,1622.2,2241.7,140.6,43.7,9.5
0.139363,536.5,52.0,1627.2,204.4,2237.5,211.3,522.7,1624.3,2244.3,140.7,43.6,9
0.141363,541.9,49.6,1633.9,199.0,2236.8,284.2,523,1626,2246.5,140.7,43.4,8.3
0.143363,543.5,48.3,1645.8,199.4,2246.7,441.2,523.2,1627.1,2247.9,140.8,42.9,7.7
0.145363,543.2,47.4,1658.0,199.7,2287.8,700.0,523.3,1627.5,2248.4,140.9,42.2,7.1
