time,f1,b1,f2,b2,f3,b3,f1p,f2p,f3p,f0,intensity,harmonicity
0.025803,332.9,108.1,2605.8,104.6,3544.6,133.5,358.7,2613.5,3543.6,213.5,62.2,12.1
0.027803,339.7,107.3,2600.4,98.9,3537.3,131.9,358.4,2613.4,3543.8,213.1,62.2,12.2
0.029803,344.9,103.7,2595.6,94.5,3533.9,127.0,357.9,2613.1,3544.1,212.7,62.2,12.1
0.031803,348.0,100.2,2591.3,89.1,3537.5,123.2,357.1,2612.8,3544.5,212.2,62.3,12
0.033803,349.4,98.2,2587.9,83.8,3546.0,121.3,356.2,2612.4,3545,211.7,62.4,11.9
0.035803,349.7,96.7,2585.5,80.7,3555.8,118.5,355.2,2611.9,3545.6,211.2,62.5,11.7
0.037803,349.4,94.4,2584.7,81.8,3562.4,113.1,353.9,2611.4,3546.3,210.6,62.7,11.7
0.039803,349.2,90.9,2586.5,87.0,3564.8,107.2,352.5,2610.9,3547,210,62.8,11.7
0.041803,349.6,86.9,2592.8,94.3,3564.7,104.1,351,2610.4,3547.8,209.3,62.8,11.7
0.043803,351.3,84.1,2603.3,100.7,3563.2,104.2,349.4,2609.8,3548.6,208.6,62.9,11.7
0.045803,354.4,83.2,2616.7,104.4,3559.7,104.8,347.7,2609.4,3549.4,207.9,62.9,11.6
0.047803,358.2,84.4,2629.9,103.1,3554.0,103.0,345.9,2609,3550.1,207.1,62.9,11.4
0.049803,361.4,86.7,2640.8,97.2,3547.1,99.1,344.1,2608.7,3550.8,206.2,62.8,10.9
0.051803,363.3,88.4,2648.3,88.3,3541.4,95.9,342.3,2608.5,3551.4,205.4,62.8,10.4
0.053803,363.3,88.6,2651.6,78.5,3538.8,95.8,340.4,2608.5,3551.9,204.4,62.8,9.9
0.055803,361.5,86.7,2650.2,68.4,3540.1,100.6,338.6,2608.6,3552.3,203.5,62.8,9.6
0.057803,358.3,83.7,2644.8,59.4,3544.1,111.0,336.8,2608.8,3552.5,202.5,62.8,9.6
0.059803,354.6,81.1,2637.3,52.2,3547.6,126.2,335.1,2609.3,3552.5,201.4,62.8,10
0.061803,350.5,79.9,2629.1,47.8,3547.4,145.1,333.4,2609.9,3552.4,200.3,62.7,10.5
0.063803,346.0,79.6,2621.3,46.7,3543.2,165.7,331.9,2610.7,3551.9,199.2,62.7,11.1
0.065803,340.6,80.2,2613.4,49.4,3536.5,187.7,330.5,2611.7,3551.3,198.1,62.7,11.6
0.067803,334.3,82.1,2606.5,56.1,3531.3,206.1,329.1,2612.8,3550.3,196.9,62.6,11.8
0.069803,327.5,86.6,2602.6,66.0,3530.5,217.8,327.9,2614.1,3549,195.7,62.6,11.9
0.071803,320.8,93.5,2604.1,77.4,3534.2,220.6,326.9,2615.6,3547.5,194.4,62.6,11.9
0.073803,315.0,100.7,2610.4,86.7,3540.5,214.4,326,2617.1,3545.5,193.2,62.6,11.9
0.075803,309.6,106.6,2618.9,89.8,3547.1,202.1,325.2,2618.8,3543.3,191.9,62.6,11.9
0.077803,304.8,109.2,2625.1,84.4,3549.9,192.6,324.6,2620.6,3540.6,190.6,62.7,11.9
0.079803,301.1,107.8,2627.8,74.8,3546.3,193.9,324.1,2622.4,3537.6,189.3,62.7,12.1
0.081803,299.5,103.4,2628.0,66.2,3536.2,205.4,323.7,2624.2,3534.2,188,62.7,12.3
0.083803,300.3,97.2,2627.1,61.4,3524.9,219.6,323.5,2625.9,3530.5,186.6,62.8,12.4
0.085803,303.2,88.4,2625.7,61.3,3519.6,233.7,323.3,2627.6,3526.3,185.3,62.8,12.5
0.087803,307.4,78.1,2624.1,66.5,3523.2,249.0,323.3,2629.2,3521.8,184,62.7,12.4
0.089803,311.9,68.2,2623.2,75.3,3531.8,270.1,323.4,2630.7,3516.9,182.7,62.7,12.2
0.091803,316.4,60.3,2623.8,82.8,3540.0,296.8,323.5,2632,3511.7,181.4,62.6,11.8
0.093803,320.9,54.7,2625.1,85.1,3541.5,321.9,323.7,2633.1,3506.1,180.1,62.6,11.5
0.095803,325.7,49.3,2624.9,85.1,3531.7,337.9,324,2633.9,3500.1,178.8,62.6,11.2
0.097803,330.0,43.3,2622.8,86.2,3513.0,335.3,324.2,2634.5,3493.9,177.5,62.6,11.1
0.099803,333.2,37.0,2621.5,88.8,3495.6,330.0,324.5,2634.7,3487.3,176.3,62.7,11
0.101803,334.9,31.2,2622.7,92.7,3480.6,343.0,324.7,2634.7,3480.5,175,62.9,10.9
0.103803,335.3,26.1,2625.0,98.2,3461.8,372.6,324.9,2634.3,3473.4,173.8,63.1,11
0.105803,335.0,21.8,2626.6,105.5,3436.1,398.5,325.1,2633.5,3466.1,172.6,63.4,11.2
0.107803,334.6,18.8,2627.2,110.8,3419.5,392.0,325.2,2632.5,3458.6,171.5,63.8,11.7
0.109803,334.1,16.6,2628.2,110.0,3422.5,357.8,325.2,2631,3450.9,170.3,64.3,12.5
0.111803,333.3,14.8,2629.4,104.1,3433.6,320.4,325.1,2629.3,3443,169.2,64.7,13.5
0.113803,332.3,13.2,2628.1,98.0,3440.3,297.2,324.9,2627.2,3435,168.2,65.2,14.6
0.115803,331.1,11.5,2622.1,94.5,3440.6,287.9,324.6,2624.9,3427,167.1,65.7,15.4
0.117803,329.9,10.2,2612.3,95.2,3435.3,290.3,324.1,2622.3,3418.9,166.1,66.1,15.9
0.119803,328.6,9.2,2602.8,99.8,3425.4,299.7,323.6,2619.5,3410.7,165.1,66.5,16.2
0.121803,327.3,8.5,2597.4,106.2,3413.7,307.7,322.9,2616.5,3402.5,164.1,66.8,16.3
0.123803,326.0,8.2,2597.2,112.0,3401.1,309.6,322,2613.3,3394.3,163.1,67.1,16.3
0.125803,324.4,8.1,2599.8,114.8,3386.2,306.8,321,2610.1,3386.2,162.2,67.2,16.2
0.127803,322.3,8.1,2603.2,112.1,3372.9,300.3,319.9,2606.9,3378.1,161.3,67.3,16
0.129803,319.8,8.2,2607.2,105.9,3364.8,293.3,318.7,2603.6,3370.1,160.4,67.4,15.6
0.131803,317.1,8.4,2610.3,99.4,3360.1,288.3,317.4,2600.5,3362.2,159.6,67.4,15
0.133803,314.5,8.6,2610.0,93.4,3354.9,283.8,315.9,2597.5,3354.3,158.7,67.3,14.5
0.135803,311.9,8.8,2605.2,87.9,3346.1,278.7,314.4,2594.7,3346.6,157.9,67.1,14.1
0.137803,309.4,9.0,2598.5,83.8,3334.8,275.1,312.7,2592.2,3339,157.2,67,13.8
0.139803,307.4,9.5,2595.4,82.7,3323.6,277.5,311.1,2590,3331.5,156.4,66.7,13.7
0.141803,305.5,10.2,2598.1,86.9,3312.9,288.7,309.3,2588.2,3324.1,155.7,66.4,13.6
0.143803,303.3,11.2,2602.9,97.1,3303.5,301.8,307.6,2586.7,3316.9,155,66.1,13.6
0.145803,300.6,12.3,2603.9,111.0,3296.8,306.2,305.8,2585.7,3309.7,154.4,65.8,13.9
0.147803,297.9,13.4,2597.4,121.4,3292.7,299.8,304,2585.2,3302.6,153.7,65.4,14.6
0.149803,295.5,14.3,2588.6,125.3,3287.3,293.2,302.3,2585.2,3295.6,153.1,65.2,15.8
0.151803,293.6,15.2,2585.8,124.3,3279.3,294.5,300.6,2585.8,3288.7,152.6,64.9,17.3
0.153803,292.5,16.2,2592.1,121.0,3273.4,307.1,299,2586.8,3281.8,152.1,64.8,18.8
0.155803,291.7,17.4,2605.5,119.6,3275.3,332.6,297.5,2588.4,3274.9,151.6,64.7,19.9
0.157803,290.8,18.5,2619.8,122.7,3283.6,364.1,296,2590.5,3268,151.1,64.8,20.4
0.159803,290.3,18.8,2628.3,130.0,3291.4,385.3,294.7,2593.1,3261.1,150.7,64.9,20.4
0.161803,290.3,18.0,2629.1,140.5,3290.8,386.6,293.5,2596.2,3254.1,150.4,65,20.1
0.163803,290.4,16.7,2625.4,153.5,3278.4,373.8,292.5,2599.6,3247,150,65.1,19.6
0.165803,291.0,15.4,2619.2,166.8,3257.2,358.1,291.5,2603.5,3239.8,149.7,65.3,19.1
0.167803,292.3,14.3,2612.3,177.2,3234.0,349.5,290.8,2607.6,3232.4,149.5,65.5,18.7
0.169803,293.7,13.6,2607.6,188.1,3211.4,348.4,290.2,2612,3224.8,149.2,65.6,18.1
0.171803,294.7,13.3,2607.0,199.5,3194.9,349.9,289.8,2616.6,3217,149.1,65.6,17.6
0.173803,295.8,13.1,2609.8,203.3,3189.9,353.7,289.5,2621.2,3208.9,148.9,65.6,17
0.175803,296.6,12.9,2613.5,195.0,3191.3,363.7,289.4,2625.9,3200.5,148.8,65.6,16.7
0.177803,296.5,13.2,2614.7,178.5,3188.4,372.4,289.5,2630.4,3191.8,148.7,65.5,16.7
0.179803,295.7,13.9,2613.9,163.1,3175.9,363.3,289.8,2634.8,3182.8,148.6,65.3,16.9
0.181803,295.1,14.9,2614.9,153.7,3160.4,333.0,290.2,2638.9,3173.4,148.6,65.1,17.3
0.183803,294.6,16.4,2618.7,150.8,3147.7,295.4,290.7,2642.6,3163.7,148.6,64.8,17.8
0.185803,294.0,18.4,2622.3,152.3,3138.0,263.0,291.4,2645.8,3153.5,148.7,64.6,18.3
0.187803,293.9,20.1,2623.8,157.4,3132.9,248.1,292.2,2648.5,3142.9,148.7,64.4,18.9
0.189803,294.4,21.4,2624.9,169.1,3130.5,254.5,293.2,2650.6,3131.9,148.8,64.2,19.6
0.191803,294.8,22.4,2626.8,186.5,3127.0,275.3,294.2,2651.9,3120.5,149,64.1,20.4
0.193803,295.5,22.9,2628.0,198.3,3121.3,292.7,295.4,2652.4,3108.7,149.1,64,21.1
0.195803,296.6,23.1,2628.0,196.1,3115.5,299.4,296.6,2652.1,3096.5,149.3,64,21.6
0.197803,297.7,23.5,2627.6,183.1,3109.8,298.0,297.8,2650.9,3083.9,149.5,64,21.7
0.199803,298.8,23.8,2625.9,169.9,3100.6,291.4,299.2,2648.7,3070.9,149.7,64.1,21.5
0.201803,299.9,23.5,2623.5,161.9,3086.5,281.7,300.5,2645.6,3057.6,149.9,64.2,21.1
0.203803,300.7,23.2,2622.1,158.9,3065.2,269.7,301.9,2641.5,3043.9,150.2,64.2,20.6
0.205803,301.1,23.6,2621.3,158.7,3040.4,258.5,303.3,2636.4,3030,150.4,64.3,20
0.207803,302.2,24.8,2619.4,159.8,3017.6,260.3,304.6,2630.3,3015.9,150.7,64.5,19.3
0.209803,304.0,27.0,2617.0,164.7,2995.1,291.4,306,2623.3,3001.5,151,64.7,18.4
0.211803,305.8,29.7,2617.0,171.7,2968.6,350.6,307.3,2615.4,2987,151.3,64.9,17.4
0.213803,307.6,30.7,2618.1,173.0,2944.8,398.8,308.6,2606.6,2972.5,151.6,65.3,16.5
0.215803,309.4,29.2,2615.2,166.6,2933.3,394.0,309.9,2597,2957.9,151.9,65.7,15.9
0.217803,310.7,26.5,2607.1,155.4,2931.4,332.8,311,2586.7,2943.3,152.3,66.1,15.8
0.219803,311.8,24.0,2597.6,143.5,2926.7,266.4,312.2,2575.8,2928.9,152.6,66.6,16.2
0.221803,312.5,22.1,2590.2,139.9,2915.1,232.2,313.2,2564.4,2914.6,153,67,16.9
0.223803,312.8,21.3,2585.5,148.2,2898.0,231.3,314.2,2552.6,2900.5,153.3,67.4,17.8
0.225803,313.2,21.2,2582.2,163.5,2876.7,249.8,315.1,2540.5,2886.8,153.6,67.7,18.4
0.227803,313.8,21.2,2578.1,174.8,2858.6,272.9,315.9,2528.2,2873.4,154,68,18.8
0.229803,314.3,21.2,2571.1,177.5,2847.9,294.4,316.7,2515.9,2860.5,154.3,68.2,18.9
0.231803,314.6,21.6,2563.3,174.0,2841.6,312.6,317.4,2503.7,2848.1,154.7,68.3,19
0.233803,315.1,21.9,2557.5,169.4,2835.7,322.8,318,2491.7,2836.4,155,68.4,19
0.235803,315.6,22.1,2552.0,167.3,2828.8,322.0,318.6,2480.1,2825.2,155.4,68.5,19
0.237803,316.0,22.8,2543.4,170.8,2820.6,307.4,319.1,2469,2814.8,155.7,68.6,19.1
0.239803,316.9,23.8,2528.8,182.5,2808.4,279.2,319.5,2458.5,2805.2,156,68.7,19.3
0.241803,318.0,24.7,2505.6,203.0,2792.6,244.2,319.9,2448.7,2796.4,156.3,68.8,19.4
0.243803,319.1,25.8,2472.8,225.3,2778.9,214.4,320.2,2439.8,2788.6,156.6,68.8,19.6
0.245803,320.6,27.0,2433.8,243.2,2770.2,196.5,320.5,2431.9,2781.6,156.9,68.9,19.9
0.247803,322.1,28.1,2398.3,258.5,2767.4,191.0,320.7,2425,2775.7,157.2,69,20.3
0.249803,323.6,29.0,2364.2,276.7,2768.4,190.4,320.8,2419.3,2770.8,157.5,69.1,20.9
0.251803,324.8,29.3,2329.2,292.1,2772.8,193.6,321,2414.7,2767,157.7,69.1,21.6
0.253803,325.5,28.3,2303.2,308.1,2779.7,211.0,321.1,2411.4,2764.2,158,69.2,22.3
0.255803,325.9,26.5,2293.8,349.8,2787.3,259.1,321.1,2409.5,2762.5,158.2,69.2,22.8
0.257803,326.2,24.9,2308.1,450.0,2784.3,346.1,321.1,2408.8,2762,158.4,69.2,22.9
