time,f1,b1,f2,b2,f3,b3,f1p,f2p,f3p,f0,intensity,harmonicity
0.025277,479.5,31.6,2069.5,58.0,2404.0,93.6,481.2,2088.1,2405.6,247.1,44.8,4.6
0.027277,475.8,32.2,2078.3,65.2,2411.5,100.7,481.5,2088,2406.3,247.1,44.9,5.5
0.029277,474.4,34.2,2079.6,81.1,2414.4,112.4,482,2087.8,2407.5,247.1,45.1,6.1
0.031277,477.6,38.6,2078.4,103.2,2410.4,118.5,482.6,2087.6,2409.1,247,45.1,6.4
0.033277,483.9,43.0,2081.4,119.3,2404.8,117.9,483.3,2087.3,2411.2,246.9,45.2,6.4
0.035277,489.4,45.8,2090.2,123.8,2404.1,118.1,484.2,2087,2413.5,246.8,45.4,6.6
0.037277,493.1,48.4,2102.8,121.6,2410.6,122.2,485.1,2086.6,2416.1,246.7,45.6,7
0.039277,494.7,49.3,2112.2,118.6,2420.2,127.9,486,2086.2,2418.9,246.5,45.8,7.8
0.041277,493.5,45.5,2112.3,116.2,2426.2,130.3,486.9,2085.9,2421.8,246.2,46.2,9.2
0.043277,490.7,39.0,2103.0,109.6,2427.5,127.1,487.8,2085.5,2424.8,246,46.5,10.8
0.045277,488.6,33.9,2091.3,98.2,2427.9,120.8,488.6,2085.1,2427.7,245.6,46.9,12.3
0.047277,488.4,31.1,2081.3,85.8,2429.8,112.3,489.2,2084.8,2430.5,245.2,47.3,13.5
0.049277,489.4,29.3,2073.8,76.0,2433.9,103.3,489.7,2084.5,2433,244.8,47.7,13.9
0.051277,489.8,27.2,2068.3,69.7,2439.2,98.3,489.9,2084.3,2435.4,244.3,48,13.5
0.053277,489.4,25.0,2064.5,67.5,2443.7,101.1,489.9,2084.1,2437.4,243.7,48.3,12.7
0.055277,488.7,23.4,2062.6,69.8,2445.2,111.2,489.7,2083.9,2439,243.1,48.6,11.8
0.057277,487.7,22.3,2062.8,77.0,2442.3,124.9,489.1,2083.9,2440.3,242.4,48.7,11.3
0.059277,486.2,22.0,2066.6,91.0,2435.6,137.3,488.3,2083.9,2441.2,241.7,48.9,11.4
0.061277,484.3,22.5,2076.6,113.4,2427.0,147.1,487.1,2084,2441.6,240.9,48.9,12
0.063277,482.7,23.4,2093.7,139.9,2420.6,153.2,485.6,2084.2,2441.7,240.1,49,13
0.065277,481.1,23.6,2110.5,155.5,2421.9,151.2,483.9,2084.4,2441.4,239.2,49,14
0.067277,478.7,22.4,2119.6,153.0,2431.7,139.7,481.8,2084.7,2440.8,238.3,49.2,14.8
0.069277,476.0,19.7,2119.9,138.7,2443.9,126.1,479.5,2085,2439.9,237.3,49.3,15.2
0.071277,473.5,16.5,2114.3,123.8,2453.5,117.5,477,2085.3,2438.8,236.3,49.5,15.4
0.073277,471.7,13.7,2104.2,114.5,2458.4,115.9,474.2,2085.7,2437.6,235.3,49.8,15.5
0.075277,470.2,11.8,2093.1,111.6,2458.4,119.8,471.3,2086.1,2436.3,234.2,50,15.4
0.077277,468.5,10.5,2085.0,113.8,2453.1,125.8,468.3,2086.4,2435,233.1,50.2,15.4
0.079277,466.5,9.7,2081.7,120.1,2444.1,128.7,465.1,2086.8,2433.7,232,50.4,15.5
0.081277,464.2,9.1,2080.3,123.1,2436.8,125.7,462,2087.1,2432.6,230.9,50.6,15.5
0.083277,461.5,8.7,2076.4,111.0,2435.2,118.6,458.8,2087.3,2431.8,229.8,50.8,15.5
0.085277,458.6,8.7,2069.4,88.5,2437.3,112.4,455.6,2087.5,2431.2,228.6,51,15.6
0.087277,455.6,9.1,2061.7,69.0,2438.5,111.2,452.6,2087.6,2431,227.5,51.2,15.7
0.089277,452.9,9.9,2056.3,59.6,2435.3,114.2,449.6,2087.6,2431.2,226.4,51.4,15.8
0.091277,450.7,10.9,2053.9,60.1,2427.2,117.3,446.8,2087.6,2431.8,225.3,51.6,16.3
0.093277,448.7,11.9,2054.7,70.5,2417.8,119.1,444.1,2087.4,2432.9,224.2,51.7,16.7
0.095277,446.8,12.8,2059.6,89.6,2411.6,120.2,441.7,2087.1,2434.4,223.2,51.7,17.1
0.097277,444.5,14.3,2071.1,117.4,2408.6,122.7,439.4,2086.7,2436.3,222.1,51.6,17.1
0.099277,441.6,17.1,2088.7,147.5,2408.0,128.7,437.4,2086.2,2438.7,221.1,51.4,16.7
0.101277,437.9,21.6,2105.4,168.5,2409.7,137.9,435.6,2085.7,2441.4,220.2,51.2,15.6
0.103277,432.8,27.3,2111.9,169.3,2417.7,149.6,434,2085,2444.5,219.2,51,14.1
0.105277,427.4,32.0,2109.9,152.0,2435.8,163.1,432.6,2084.3,2447.8,218.3,50.9,12.6
0.107277,424.0,33.8,2106.8,130.8,2461.5,173.7,431.4,2083.4,2451.3,217.5,50.9,11.5
0.109277,424.1,32.5,2106.9,121.4,2481.6,172.1,430.3,2082.6,2454.9,216.7,51,11
0.111277,425.4,30.0,2110.7,128.2,2487.7,156.8,429.5,2081.7,2458.6,216,51.1,10.9
0.113277,425.8,28.6,2114.4,146.6,2484.8,134.8,428.7,2080.8,2462.2,215.2,51.3,11.2
0.115277,424.8,28.8,2108.6,162.7,2480.9,113.4,428.1,2079.9,2465.6,214.6,51.4,11.6
0.117277,423.4,30.6,2086.5,163.6,2479.8,94.4,427.6,2079,2468.8,214,51.5,12.1
0.119277,423.3,32.5,2060.0,151.8,2481.7,82.7,427.1,2078.1,2471.7,213.4,51.7,12.6
0.121277,425.1,32.4,2044.0,145.2,2484.5,78.6,426.7,2077.3,2474.2,212.9,51.9,13.1
0.123277,427.1,29.4,2042.1,150.8,2486.8,81.1,426.3,2076.6,2476.2,212.5,52.1,13.7
0.125277,427.8,25.1,2051.5,163.4,2488.2,90.3,425.9,2076,2477.7,212.1,52.4,14.5
0.127277,427.1,20.8,2069.4,174.7,2488.5,107.0,425.5,2075.5,2478.8,211.8,52.6,15.4
0.129277,425.9,17.5,2088.2,175.1,2486.5,127.0,425.1,2075,2479.3,211.5,52.8,16.6
0.131277,425.1,15.9,2099.3,167.0,2482.0,142.1,424.7,2074.7,2479.2,211.2,52.9,18.2
0.133277,424.8,16.2,2100.0,161.9,2476.0,147.5,424.2,2074.5,2478.6,211.1,52.9,20.1
0.135277,424.9,17.6,2091.7,166.2,2469.4,144.5,423.7,2074.5,2477.4,210.9,52.8,21.8
0.137277,424.9,19.5,2075.7,180.0,2463.7,135.6,423.3,2074.6,2475.9,210.9,52.7,23.1
0.139277,425.0,20.8,2056.6,200.0,2459.3,126.1,422.8,2074.8,2473.9,210.8,52.6,23.6
0.141277,425.2,21.7,2041.8,221.1,2456.7,120.4,422.4,2075.1,2471.5,210.9,52.5,23.4
0.143277,425.5,22.1,2038.1,241.4,2455.3,121.1,422,2075.5,2468.9,211,52.3,22.7
0.145277,425.1,22.3,2045.6,264.8,2453.5,128.0,421.7,2076.1,2466.1,211.1,52.2,21.8
0.147277,423.8,22.2,2059.4,296.6,2449.3,137.7,421.5,2076.8,2463.3,211.3,51.9,21.1
0.149277,422.2,22.4,2072.5,325.3,2443.6,141.0,421.4,2077.5,2460.4,211.5,51.7,20.9
0.151277,421.3,22.7,2082.0,328.6,2441.1,133.4,421.5,2078.3,2457.7,211.8,51.4,20.8
0.153277,421.5,22.9,2089.0,298.5,2443.8,119.2,421.7,2079.2,2455.1,212.2,51.2,20.9
0.155277,422.4,22.6,2093.2,256.8,2448.5,105.7,422.1,2080.1,2452.8,212.5,51,21
0.157277,423.2,21.8,2095.2,221.7,2452.8,96.2,422.7,2081.1,2450.9,213,50.9,21.1
0.159277,423.8,20.8,2095.4,200.2,2455.9,90.9,423.6,2082.1,2449.4,213.5,50.7,21.1
0.161277,424.6,19.9,2094.8,188.6,2458.5,86.7,424.7,2083,2448.4,214,50.6,21.2
0.163277,425.8,19.1,2095.0,181.9,2461.5,81.7,426,2084,2447.9,214.6,50.5,21.2
0.165277,427.4,18.8,2097.4,175.8,2465.7,76.3,427.5,2084.9,2447.9,215.2,50.5,21.2
0.167277,429.0,19.1,2100.7,167.4,2470.6,72.1,429.2,2085.8,2448.5,215.8,50.4,21
0.169277,430.4,19.6,2100.5,159.0,2474.2,71.0,431.1,2086.7,2449.6,216.5,50.3,20.7
0.171277,431.5,19.9,2094.2,155.2,2474.1,74.2,433.2,2087.5,2451.2,217.2,50.3,20.1
0.173277,432.7,19.7,2084.1,157.0,2469.6,80.6,435.5,2088.3,2453.3,218,50.3,19.4
0.175277,434.2,19.0,2075.7,160.8,2462.2,85.8,437.8,2089,2455.7,218.8,50.3,18.6
0.177277,436.6,18.1,2073.2,164.1,2454.5,86.3,440.3,2089.6,2458.6,219.5,50.4,18
0.179277,439.6,17.1,2079.1,165.2,2450.0,81.2,442.7,2090.2,2461.6,220.3,50.5,17.5
0.181277,442.8,16.4,2090.1,160.2,2449.7,72.9,445.2,2090.7,2464.9,221.2,50.7,17.1
0.183277,445.6,15.7,2097.6,148.1,2452.3,63.4,447.6,2091.2,2468.2,222,50.9,16.8
0.185277,447.7,15.0,2097.1,135.2,2456.1,55.7,449.9,2091.6,2471.5,222.8,51.1,16.5
0.187277,449.4,14.4,2092.4,126.0,2460.9,51.3,452,2091.9,2474.7,223.6,51.2,16.3
0.189277,451.2,14.3,2089.5,121.9,2467.3,51.2,454,2092.2,2477.7,224.4,51.4,16
0.191277,453.4,14.9,2089.8,120.1,2476.4,54.5,455.8,2092.4,2480.4,225.2,51.5,15.9
0.193277,456.3,16.1,2091.8,118.9,2488.3,60.2,457.2,2092.6,2482.7,225.9,51.6,15.7
0.195277,459.8,17.3,2094.5,121.6,2499.1,67.3,458.4,2092.7,2484.6,226.7,51.7,15.6
0.197277,463.5,17.7,2097.2,133.7,2501.8,76.0,459.3,2092.8,2486,227.4,51.8,15.6
0.199277,466.8,17.1,2093.8,156.3,2490.6,83.5,459.8,2092.9,2486.8,228.1,52,15.7
0.201277,469.6,15.7,2078.1,181.0,2469.6,84.8,460,2092.9,2487.1,228.7,52.1,15.9
