time,f1,b1,f2,b2,f3,b3,f1p,f2p,f3p,f0,intensity,harmonicity
0.025091,529.6,23.5,2340.2,109.4,2810.2,88.7,527,2355.4,2803.3,173.1,72.3,1.7
0.027091,529.1,19.2,2351.0,118.7,2812.5,93.6,526.6,2357.7,2803.5,173,73,3.6
0.029091,527.3,16.5,2366.5,123.6,2810.3,105.3,526,2361.4,2803.8,172.8,73.6,6.7
0.031091,525.2,14.9,2376.6,120.6,2805.3,113.8,525.1,2366.3,2804.2,172.6,74.1,10.4
0.033091,522.8,13.6,2381.3,116.5,2801.1,116.6,524,2372.2,2804.8,172.5,74.5,13.9
0.035091,520.7,12.5,2384.0,114.4,2798.8,116.7,522.7,2379,2805.5,172.3,74.9,16.7
0.037091,519.1,11.7,2387.5,112.6,2798.3,116.0,521.4,2386.2,2806.5,172.1,75.2,18.8
0.039091,517.8,11.0,2392.6,110.0,2799.7,115.3,520.1,2393.6,2807.6,171.9,75.4,20.5
0.041091,516.9,10.6,2398.5,108.0,2802.6,115.6,518.7,2401,2809,171.7,75.6,22
0.043091,516.2,10.2,2404.7,107.7,2806.5,117.3,517.4,2408.1,2810.6,171.4,75.8,23.1
0.045091,515.7,10.1,2410.6,109.2,2810.6,120.0,516.2,2414.8,2812.4,171.2,75.9,24.1
0.047091,515.4,10.1,2417.1,111.7,2814.5,123.5,515.1,2420.9,2814.5,171,76.1,24.7
0.049091,515.0,10.1,2425.0,112.4,2818.4,126.2,514.1,2426.4,2816.8,170.7,76.2,25
0.051091,514.4,10.0,2433.2,109.6,2822.3,127.0,513.2,2431.3,2819.3,170.5,76.3,25.1
0.053091,513.7,10.0,2440.6,103.9,2826.3,126.1,512.4,2435.6,2822.1,170.2,76.4,25
0.055091,512.9,10.2,2444.9,97.5,2829.0,123.7,511.7,2439.4,2825,169.9,76.4,25
0.057091,511.9,10.4,2445.9,91.6,2830.4,119.2,511.1,2443,2828,169.6,76.5,25
0.059091,511.1,10.8,2445.9,86.8,2832.3,112.9,510.6,2446.5,2831.1,169.3,76.5,25
0.061091,510.3,11.0,2447.1,83.7,2835.8,106.9,510,2450.1,2834.3,169,76.5,24.9
0.063091,509.6,11.1,2450.7,82.4,2841.1,102.8,509.4,2454,2837.5,168.7,76.6,24.6
0.065091,509.1,11.0,2456.4,83.1,2846.3,101.8,508.8,2458.4,2840.8,168.4,76.6,24.1
0.067091,508.3,10.7,2462.8,85.4,2849.3,102.9,508,2463.4,2843.9,168.1,76.6,23.1
0.069091,507.2,10.5,2469.4,90.2,2849.3,105.3,507.2,2469.1,2847.1,167.8,76.7,21.8
0.071091,506.0,10.4,2475.9,97.6,2847.5,109.5,506.3,2475.6,2850.1,167.4,76.7,20.4
0.073091,504.6,10.3,2482.9,105.7,2846.4,116.0,505.2,2482.8,2853.1,167.1,76.7,19.2
0.075091,503.3,10.2,2490.7,111.0,2848.4,124.8,504.1,2490.7,2856.1,166.8,76.6,18.5
0.077091,502.0,10.3,2498.4,113.2,2853.2,135.6,502.8,2499,2859,166.4,76.5,18.3
0.079091,500.8,10.5,2505.2,114.9,2857.6,146.2,501.5,2507.7,2861.9,166.1,76.4,18.5
0.081091,499.5,10.7,2511.8,117.9,2860.3,156.0,500.2,2516.5,2864.9,165.8,76.2,19
0.083091,498.0,11.0,2521.3,121.1,2862.9,167.9,498.9,2525.2,2868,165.4,76.1,19.5
0.085091,496.7,11.5,2533.9,121.0,2867.3,182.8,497.6,2533.5,2871.3,165.1,75.9,20.1
0.087091,495.8,12.1,2547.0,116.5,2874.5,199.3,496.4,2541.1,2874.8,164.7,75.7,20.8
0.089091,495.3,12.7,2557.3,109.7,2883.3,211.9,495.3,2547.9,2878.7,164.4,75.6,21.8
0.091091,495.0,13.2,2562.6,102.7,2891.5,214.5,494.4,2553.6,2883,164.1,75.5,22.7
0.093091,494.8,13.4,2564.5,95.7,2898.9,209.6,493.5,2558.1,2887.8,163.7,75.4,23.4
0.095091,494.6,13.5,2564.3,89.6,2904.6,203.8,492.8,2561.3,2893.1,163.4,75.2,23.6
0.097091,494.2,13.8,2562.3,85.4,2907.9,199.4,492.2,2563.1,2899,163.1,75.1,23.1
0.099091,493.5,14.1,2559.1,84.1,2910.3,196.8,491.8,2563.7,2905.5,162.8,74.9,22
0.101091,492.8,14.8,2555.6,85.2,2912.7,196.4,491.4,2563,2912.6,162.5,74.7,20.6
0.103091,492.1,15.9,2552.0,87.5,2914.3,199.4,491.1,2561.2,2920.2,162.2,74.4,19.4
0.105091,491.1,17.0,2548.7,89.7,2914.8,208.8,490.9,2558.4,2928.4,161.9,74,18.7
0.107091,489.8,18.0,2545.9,92.0,2917.9,226.5,490.7,2554.8,2937.1,161.6,73.6,18.7
0.109091,488.4,19.1,2544.4,93.2,2928.2,246.1,490.6,2550.6,2946.2,161.3,73.2,19.2
0.111091,487.4,20.4,2543.9,93.0,2946.8,258.1,490.4,2546,2955.5,161.1,72.7,19.8
0.113091,486.8,22.2,2544.1,93.6,2973.1,262.3,490.2,2541.2,2965,160.8,72.2,20.2
0.115091,486.8,24.9,2544.0,96.6,2996.5,261.8,490,2536.3,2974.4,160.5,71.7,20
0.117091,487.2,28.8,2542.5,101.8,3008.0,261.8,489.7,2531.6,2983.7,160.3,71.2,19
0.119091,488.4,34.7,2538.6,106.8,3007.5,261.2,489.4,2527.2,2992.6,160.1,70.6,17.4
0.121091,490.5,43.3,2532.8,106.8,3001.8,256.6,489.1,2523.1,3001,159.9,70,15.5
0.123091,493.6,55.3,2526.5,100.5,2997.9,250.6,488.7,2519.5,3008.7,159.7,69.5,13.8
0.125091,496.2,68.4,2520.5,92.1,2998.1,247.9,488.4,2516.4,3015.5,159.5,69.2,12.5
0.127091,496.4,76.3,2514.9,84.5,2999.2,250.1,488.1,2513.8,3021.3,159.3,69.1,11.8
0.129091,492.4,70.6,2510.6,78.7,3002.5,260.5,487.8,2511.8,3026,159.1,69.3,11.4
0.131091,486.6,55.2,2506.8,74.4,3014.7,276.5,487.6,2510.4,3029.4,158.9,69.7,11.2
0.133091,481.3,39.7,2501.5,71.0,3042.9,284.0,487.5,2509.6,3031.5,158.8,70.2,11
0.135091,477.9,29.9,2495.0,69.4,3076.8,269.4,487.5,2509.3,3032.1,158.7,70.7,10.9
