time,f1,b1,f2,b2,f3,b3,f1p,f2p,f3p,f0,intensity,harmonicity
0.025825,597.4,124.8,1672.8,134.3,2370.1,528.9,645.1,1700.8,2353.4,156.1,51.9,10.2
0.027825,618.8,111.0,1673.9,126.7,2343.1,523.1,646.4,1700.8,2350.2,156.3,52.5,10.6
0.029825,633.3,104.2,1677.4,129.3,2342.9,538.6,648.5,1700.8,2345,156.4,53,11.6
0.031825,646.1,100.6,1680.6,137.9,2355.4,569.1,651.5,1700.8,2337.8,156.6,53.5,12.7
0.033825,657.9,95.9,1682.6,145.6,2366.0,604.9,655.2,1700.8,2329,156.8,53.9,13.8
0.035825,667.3,89.4,1686.0,147.6,2365.3,630.0,659.7,1700.9,2318.7,157.1,54.2,14.8
0.037825,675.2,82.1,1695.3,148.4,2346.6,634.1,664.9,1701.1,2307.1,157.3,54.5,15.6
0.039825,682.0,75.9,1710.1,153.6,2316.7,625.5,670.7,1701.4,2294.6,157.5,54.7,16.3
0.041825,688.7,71.6,1726.3,163.2,2286.7,615.0,677,1701.9,2281.6,157.7,54.8,16.8
0.043825,695.6,69.8,1738.3,176.4,2256.6,592.9,683.9,1702.6,2268.2,158,54.9,17.2
0.045825,702.6,70.1,1743.0,193.7,2224.3,552.8,691.1,1703.5,2255,158.2,55,17.4
0.047825,709.7,71.1,1740.0,215.2,2195.2,508.0,698.6,1704.7,2242.2,158.5,55,17.3
0.049825,716.7,72.3,1732.2,237.4,2176.8,474.7,706.4,1706.1,2230.1,158.7,55.1,16.6
0.051825,725.1,72.7,1722.3,254.1,2168.1,445.0,714.3,1707.9,2219.1,159,55.1,15.7
0.053825,735.1,70.1,1715.5,251.1,2168.1,416.7,722.2,1710,2209.4,159.3,55.1,14.9
0.055825,745.0,64.6,1715.9,229.6,2171.7,400.2,730.1,1712.4,2201.4,159.5,55.2,14.4
0.057825,754.0,59.0,1722.1,207.2,2174.1,403.3,737.8,1715.1,2195.1,159.8,55.2,14.6
0.059825,760.2,55.4,1728.2,194.9,2175.2,413.0,745.3,1718.1,2190.8,160,55.3,15.3
0.061825,764.0,52.6,1730.7,190.2,2178.0,403.2,752.4,1721.3,2188.6,160.3,55.4,16.5
0.063825,766.2,49.7,1730.0,189.8,2183.8,363.9,759.2,1724.9,2188.4,160.6,55.5,17.7
0.065825,767.9,46.2,1728.4,190.0,2191.9,313.2,765.5,1728.6,2190.5,160.8,55.6,18.8
0.067825,769.1,41.9,1727.1,187.7,2202.6,269.7,771.3,1732.5,2194.6,161.1,55.7,19.7
0.069825,769.6,38.5,1726.1,185.3,2214.2,242.5,776.4,1736.5,2200.8,161.3,55.7,20.6
0.071825,769.8,36.8,1725.5,185.0,2226.5,226.7,781,1740.6,2208.8,161.6,55.8,21.4
0.073825,770.0,36.6,1726.7,185.8,2241.1,216.3,784.9,1744.7,2218.5,161.8,55.8,22.1
0.075825,770.5,37.7,1730.8,187.7,2258.0,206.1,788.1,1748.8,2229.7,162.1,55.8,22.5
0.077825,771.3,40.0,1737.4,190.9,2275.4,195.1,790.7,1752.8,2242.1,162.3,55.8,22.3
0.079825,772.4,42.3,1744.0,189.7,2290.8,183.8,792.5,1756.7,2255.5,162.6,55.7,21.6
0.081825,773.8,43.6,1749.6,180.5,2304.2,169.9,793.7,1760.5,2269.6,162.8,55.6,20.5
0.083825,775.9,44.4,1753.0,167.8,2314.3,155.7,794.3,1764,2284.1,163.1,55.6,19.4
0.085825,778.6,44.7,1754.0,160.0,2320.7,145.6,794.2,1767.4,2298.6,163.3,55.5,18.5
0.087825,782.4,44.9,1754.3,163.6,2325.2,143.0,793.6,1770.5,2313,163.5,55.4,18.2
0.089825,786.5,45.6,1757.1,180.0,2328.7,148.5,792.5,1773.4,2327,163.8,55.3,18.3
0.091825,790.1,46.9,1763.9,201.6,2332.9,159.7,790.9,1776.1,2340.4,164,55.2,18.7
0.093825,793.0,48.5,1772.9,216.2,2339.1,172.3,789,1778.5,2352.9,164.2,55.1,19.2
0.095825,795.5,50.4,1781.6,219.6,2347.4,183.0,786.8,1780.9,2364.3,164.5,55,19.6
0.097825,797.1,52.6,1790.1,217.2,2357.3,189.6,784.3,1783.1,2374.6,164.7,54.9,19.9
0.099825,796.7,54.2,1799.1,216.2,2366.9,190.0,781.8,1785.2,2383.6,164.9,54.9,20.2
0.101825,794.7,54.7,1808.5,218.5,2375.3,185.9,779.1,1787.4,2391.4,165.1,54.9,20.5
0.103825,791.7,53.8,1814.6,223.2,2381.7,179.8,776.5,1789.6,2397.9,165.3,54.9,20.8
0.105825,788.1,52.4,1815.3,232.1,2387.0,175.2,774,1792,2403.1,165.5,55,20.9
0.107825,784.0,52.7,1813.3,252.6,2393.1,177.5,771.6,1794.6,2407.3,165.7,55,20.7
0.109825,780.0,56.0,1812.2,284.5,2400.7,192.7,769.5,1797.5,2410.5,165.9,55.1,20.2
0.111825,776.2,62.2,1811.9,318.2,2411.2,223.9,767.5,1800.8,2412.8,166.1,55.1,19.5
0.113825,772.5,69.8,1812.4,335.2,2425.5,267.2,765.9,1804.6,2414.6,166.3,55.2,18.9
0.115825,768.8,75.2,1813.1,327.3,2437.8,308.2,764.5,1809,2415.9,166.5,55.2,18.5
0.117825,764.9,76.2,1813.7,307.8,2436.2,339.9,763.5,1813.9,2417.2,166.7,55.2,18.7
0.119825,761.7,74.4,1816.9,292.7,2420.6,362.0,762.8,1819.4,2418.6,166.9,55.2,19.3
0.121825,759.8,71.8,1823.6,278.8,2401.3,371.2,762.4,1825.7,2420.5,167.1,55.2,20.2
0.123825,759.0,69.8,1832.3,259.5,2389.3,365.5,762.2,1832.7,2423.1,167.2,55.1,21.2
0.125825,758.5,69.7,1841.8,237.8,2386.9,357.9,762.3,1840.4,2426.6,167.4,55,21.9
0.127825,757.8,71.2,1850.9,220.0,2391.6,364.8,762.5,1848.8,2431.4,167.6,55,22.2
0.129825,756.8,72.8,1859.7,211.3,2401.5,396.2,762.8,1858,2437.7,167.7,54.9,22.2
0.131825,755.9,73.4,1869.4,210.0,2417.7,448.0,763.1,1867.8,2445.6,167.9,54.9,21.9
0.133825,756.0,72.0,1876.4,214.6,2439.3,494.2,763.4,1878.2,2455.4,168,54.9,21.6
0.135825,756.7,69.1,1877.6,228.7,2465.7,514.0,763.6,1889.2,2467.2,168.2,55,21.4
0.137825,757.4,67.2,1876.5,259.1,2498.0,516.5,763.5,1900.6,2481.2,168.3,55.1,21.4
0.139825,757.8,67.3,1881.0,301.5,2529.6,514.9,763.2,1912.5,2497.3,168.5,55.2,21.6
0.141825,757.7,69.5,1896.6,345.9,2560.7,516.6,762.4,1924.6,2515.7,168.6,55.3,21.9
0.143825,756.9,73.4,1923.1,376.4,2595.5,527.6,761.1,1937,2536.2,168.8,55.4,22.2
0.145825,755.4,77.6,1951.9,381.6,2638.5,545.3,759.4,1949.4,2559,168.9,55.4,22.3
0.147825,752.7,81.0,1973.1,374.2,2686.6,567.2,756.9,1961.8,2583.8,169.1,55.5,22
0.149825,749.2,82.0,1981.9,377.7,2717.8,595.9,753.9,1974,2610.5,169.2,55.5,21.3
0.151825,745.4,80.4,1982.8,393.2,2715.5,627.8,750.1,1986,2639,169.3,55.5,20.3
0.153825,741.3,78.6,1984.9,403.9,2689.3,643.2,745.6,1997.7,2669.1,169.4,55.5,19.5
0.155825,736.8,78.8,1993.0,401.6,2668.6,646.0,740.3,2008.9,2700.5,169.6,55.4,18.8
0.157825,731.6,80.4,2004.6,388.7,2669.2,654.3,734.4,2019.6,2733,169.7,55.4,18.7
0.159825,725.9,83.2,2017.5,377.5,2693.3,674.4,727.7,2029.7,2766.4,169.8,55.3,19
0.161825,719.5,88.4,2034.7,381.3,2734.9,707.2,720.4,2039.2,2800.4,169.9,55.2,19.6
0.163825,712.6,96.0,2057.4,407.1,2776.2,763.9,712.5,2047.9,2834.6,170,55.2,20.3
0.165825,705.8,104.3,2082.9,446.9,2796.0,878.1,704,2055.9,2868.8,170.1,55.1,20.8
0.167825,699.0,110.8,2104.4,462.9,2793.4,1056.8,695.2,2063.2,2902.6,170.2,55.1,21
0.169825,693.4,113.6,2111.9,422.0,2807.1,1225.2,686,2069.8,2935.8,170.3,55,21
0.171825,688.9,114.9,2110.3,351.5,2885.1,1339.0,676.7,2075.6,2968.2,170.4,55,20.8
0.173825,684.5,117.5,2105.7,289.4,3015.2,1313.4,667.2,2080.6,2999.3,170.5,55,20.7
0.175825,679.4,120.7,2098.5,256.6,3094.1,1228.7,657.9,2085,3029,170.5,55,20.6
0.177825,672.6,121.9,2089.2,260.4,3116.8,1307.9,648.7,2088.8,3057,170.6,55,20.7
0.179825,664.2,123.5,2082.8,290.4,3122.5,1453.7,639.9,2092,3083.1,170.7,55,21.1
0.181825,653.6,127.3,2084.0,329.8,3159.7,1513.0,631.6,2094.6,3107,170.7,55,21.6
0.183825,640.5,130.3,2091.3,363.5,3204.9,1531.9,623.9,2096.7,3128.5,170.8,54.9,22
0.185825,625.9,129.4,2095.5,375.2,3225.6,1607.5,617,2098.4,3147.6,170.8,54.8,22.1
0.187825,610.9,126.0,2093.4,358.9,3232.4,1775.3,610.9,2099.8,3163.9,170.9,54.6,21.7
0.189825,596.8,123.9,2090.3,332.3,3247.7,1995.6,605.7,2100.8,3177.5,170.9,54.4,20.7
0.191825,583.7,123.0,2088.1,311.9,3249.0,2200.3,601.6,2101.6,3188.2,170.9,54.1,19.4
0.193825,573.6,122.8,2087.2,301.1,3207.6,2283.4,598.7,2102.1,3195.8,170.9,53.8,18
0.195825,567.2,125.0,2088.8,299.0,3143.0,2257.6,596.9,2102.4,3200.5,171,53.4,16.7
0.197825,563.9,131.6,2093.0,315.6,2994.4,2166.6,596.2,2102.5,3202,171,53.1,15.8
