time,f1,b1,f2,b2,f3,b3,f1p,f2p,f3p,f0,intensity,harmonicity
0.025746,388.8,44.5,2283.7,226.4,2717.4,242.6,416.6,2299.6,2727.4,158.5,63.1,7.3
0.027746,397.5,46.5,2301.6,186.4,2739.2,226.7,417.7,2302.7,2731.7,158.5,63.9,8.6
0.029746,409.0,52.0,2312.0,157.0,2755.6,208.2,419.4,2307.8,2738.8,158.6,64.5,8
0.031746,423.2,58.8,2318.3,136.7,2764.8,192.1,421.7,2314.8,2748.5,158.6,64.9,6.7
0.033746,436.3,62.6,2323.0,122.7,2769.6,182.0,424.5,2323.5,2760.6,158.7,65.2,5.5
0.035746,444.1,62.4,2329.6,114.1,2774.7,180.6,427.8,2333.7,2775,158.8,65.5,5.1
0.037746,448.0,61.0,2341.5,108.6,2784.2,187.1,431.5,2345.2,2791.2,158.8,65.7,6.1
0.039746,449.4,59.9,2357.7,104.0,2799.0,197.4,435.4,2357.6,2809.1,158.9,66,8.5
0.041746,449.4,59.5,2375.0,99.9,2817.9,207.4,439.4,2370.8,2828.2,159,66.3,11.7
0.043746,449.9,59.6,2392.1,96.4,2840.1,215.9,443.5,2384.5,2848.3,159.1,66.5,15
0.045746,451.2,59.8,2406.9,92.7,2861.7,222.2,447.5,2398.2,2869,159.1,66.7,17.7
0.047746,452.9,58.9,2419.4,88.7,2883.1,227.7,451.4,2411.9,2889.9,159.2,66.8,19.4
0.049746,455.0,57.2,2430.8,85.8,2906.3,233.1,455,2425.2,2910.9,159.3,66.9,20.5
0.051746,457.5,55.4,2441.8,84.9,2930.0,236.8,458.3,2437.9,2931.6,159.4,66.9,21.1
0.053746,459.8,53.8,2451.8,84.4,2951.2,237.1,461.3,2449.9,2951.7,159.5,67,21.4
0.055746,461.5,52.8,2460.0,83.3,2968.5,234.9,463.8,2460.8,2971.1,159.6,67,21.6
0.057746,463.0,52.3,2467.0,82.1,2984.0,231.6,465.9,2470.7,2989.5,159.7,67,21.8
0.059746,463.5,51.7,2473.0,81.3,2999.4,229.0,467.6,2479.4,3006.9,159.8,67.1,21.9
0.061746,463.4,51.1,2479.1,81.3,3017.7,227.5,468.9,2487,3023.1,160,67.1,21.8
0.063746,463.7,51.1,2487.0,82.0,3040.2,224.7,469.8,2493.3,3038,160.1,67.1,21.6
0.065746,464.2,51.6,2495.1,81.9,3061.4,220.3,470.3,2498.5,3051.7,160.2,67.2,21.4
0.067746,465.1,51.6,2501.0,79.7,3079.0,216.4,470.6,2502.6,3064.1,160.3,67.2,21.1
0.069746,466.6,51.5,2504.1,76.4,3092.7,213.1,470.8,2505.7,3075.3,160.5,67.2,20.7
0.071746,468.3,51.9,2506.2,72.8,3101.5,209.4,470.7,2507.9,3085.2,160.6,67.3,20.1
0.073746,469.9,53.2,2509.0,69.5,3106.2,204.3,470.7,2509.4,3094,160.8,67.4,19.6
0.075746,471.4,55.5,2512.7,66.7,3108.2,197.8,470.6,2510.3,3101.6,161,67.5,19.3
0.077746,472.7,57.7,2515.3,64.5,3109.0,192.0,470.7,2510.8,3108.2,161.1,67.6,19.2
0.079746,473.7,58.5,2515.4,63.9,3109.6,191.3,470.9,2511.1,3113.8,161.3,67.7,19.4
0.081746,475.0,58.6,2513.5,65.5,3110.6,197.0,471.3,2511.2,3118.3,161.5,67.7,19.7
0.083746,476.4,58.8,2510.9,67.9,3112.3,204.1,471.9,2511.3,3121.9,161.7,67.8,20.1
0.085746,477.3,59.1,2508.6,69.2,3115.2,207.4,472.9,2511.6,3124.6,161.9,67.9,20.5
0.087746,478.1,59.4,2507.4,68.9,3118.9,205.1,474.1,2512.1,3126.5,162.1,67.9,21
0.089746,479.1,60.3,2508.7,67.4,3122.0,199.8,475.5,2512.9,3127.4,162.3,68,21.6
0.091746,479.9,61.8,2512.9,65.5,3123.3,196.9,477.3,2514,3127.5,162.5,68,22.3
0.093746,480.9,63.8,2518.7,64.3,3121.9,199.0,479.3,2515.5,3126.7,162.7,68.1,22.9
0.095746,482.3,65.8,2523.6,63.6,3119.0,202.3,481.5,2517.3,3125,163,68.1,23.2
0.097746,483.9,67.3,2526.7,62.6,3116.8,201.1,483.9,2519.4,3122.5,163.2,68.2,23
0.099746,485.9,68.6,2528.3,60.9,3115.9,193.0,486.3,2521.9,3119.2,163.4,68.2,22.2
0.101746,488.3,70.1,2529.3,58.9,3115.3,180.2,488.9,2524.5,3115,163.7,68.3,21
0.103746,490.7,71.1,2530.0,56.4,3113.4,166.1,491.4,2527.2,3110.1,164,68.4,19.8
0.105746,492.7,70.8,2530.5,54.5,3109.0,154.2,493.8,2530,3104.5,164.2,68.4,18.7
0.107746,494.6,69.4,2530.8,53.5,3102.1,145.8,496.2,2532.7,3098.2,164.5,68.5,18
0.109746,495.9,67.0,2531.4,53.7,3094.0,144.1,498.4,2535.3,3091.4,164.7,68.6,17.5
0.111746,497.1,64.0,2532.4,55.4,3085.0,150.1,500.3,2537.6,3084.1,165,68.8,17
0.113746,498.4,61.3,2533.2,58.1,3075.7,159.4,502.1,2539.5,3076.4,165.3,68.9,16.7
0.115746,499.7,59.3,2534.1,60.2,3067.8,165.9,503.5,2541,3068.5,165.6,69,16.4
0.117746,501.1,58.4,2536.1,61.3,3062.4,167.9,504.7,2542.1,3060.5,165.8,69.2,16.3
0.119746,502.7,58.7,2539.4,61.7,3059.0,167.2,505.5,2542.6,3052.5,166.1,69.3,16.2
0.121746,504.3,59.5,2542.3,62.0,3055.7,166.2,506.1,2542.6,3044.6,166.4,69.5,16.2
0.123746,505.7,59.6,2542.6,63.0,3050.9,166.4,506.4,2542,3036.9,166.7,69.6,16.3
0.125746,506.8,58.7,2540.4,65.0,3043.5,167.9,506.4,2540.9,3029.6,166.9,69.7,16.4
0.127746,507.3,56.5,2537.6,67.7,3034.1,171.6,506.1,2539.2,3022.7,167.2,69.8,16.6
0.129746,507.4,53.2,2535.8,71.6,3024.0,179.7,505.6,2537,3016.4,167.5,69.9,16.8
0.131746,507.1,49.6,2535.3,76.6,3013.8,191.1,504.9,2534.5,3010.6,167.7,70,17
0.133746,506.6,46.1,2534.6,81.0,3004.2,201.6,504.1,2531.5,3005.5,168,70,17.3
0.135746,506.3,43.3,2532.7,83.3,2995.3,208.9,503.1,2528.3,3001,168.2,70,17.3
0.137746,506.1,41.5,2530.1,84.6,2984.4,214.7,502.1,2524.9,2997.1,168.5,70,17.2
0.139746,505.6,41.2,2527.4,86.5,2970.8,217.1,501.1,2521.5,2993.8,168.7,69.9,17
0.141746,504.8,42.9,2524.0,89.3,2957.8,213.4,500,2518,2991.1,168.9,69.9,16.7
0.143746,504.0,47.0,2520.2,91.4,2950.7,205.7,499,2514.7,2988.9,169.2,69.7,16.2
0.145746,502.9,52.8,2518.2,91.1,2952.4,200.4,498,2511.6,2987.2,169.4,69.6,15.7
0.147746,501.6,60.1,2517.8,89.1,2961.3,198.0,497.2,2508.8,2985.8,169.6,69.3,15
0.149746,500.1,69.5,2516.4,86.5,2974.2,194.9,496.4,2506.4,2984.9,169.8,69.1,14.1
0.151746,497.2,81.1,2510.9,84.4,2989.5,189.6,495.8,2504.4,2984.2,169.9,68.7,13.2
0.153746,492.4,92.2,2500.8,84.1,3007.3,186.4,495.4,2503,2983.7,170.1,68.2,12.2
0.155746,485.6,98.6,2487.1,87.0,3025.4,192.3,495.1,2502.1,2983.4,170.3,67.7,11.1
0.157746,478.1,97.1,2472.8,92.8,3038.9,213.1,495,2501.8,2983.4,170.4,66.9,10.1
