time,f1,b1,f2,b2,f3,b3,f1p,f2p,f3p,f0,intensity,harmonicity
0.025231,675.6,62.0,1008.9,91.0,2710.2,239.1,703.5,1045.8,2765.6,162.3,73.8,3
0.027231,684.2,58.7,1024.9,89.8,2722.4,215.2,703.9,1048.7,2765,161.8,74.9,4.4
0.029231,693.2,56.4,1038.9,90.8,2736.8,199.8,704.5,1053.6,2764.2,161.3,75.8,5.1
0.031231,702.9,54.5,1050.4,96.9,2754.0,193.2,705.4,1060.1,2763.4,160.8,76.4,4.3
0.033231,713.8,52.2,1064.4,110.7,2773.2,191.1,706.5,1068.3,2763.1,160.3,76.8,3
0.035231,722.9,48.6,1083.8,128.2,2789.7,189.6,707.9,1077.8,2763.6,159.8,77.1,1.7
0.037231,727.0,44.3,1106.6,138.0,2800.7,188.3,709.7,1088.5,2765.4,159.2,77.3,1.1
0.039231,727.0,41.0,1130.0,134.3,2806.4,189.2,711.8,1100,2768.8,158.7,77.3,1.9
0.041231,725.6,40.0,1147.7,122.2,2806.9,191.9,714.3,1112.2,2774.3,158.1,77.3,4.1
0.043231,725.0,40.5,1158.5,110.1,2805.4,197.1,717.1,1124.6,2782.2,157.6,77.3,7
0.045231,726.5,42.1,1163.1,104.0,2806.2,210.1,720.5,1137.1,2792.6,157,77.2,9.9
0.047231,730.0,44.8,1164.6,103.8,2810.3,232.8,724.3,1149.4,2805.8,156.5,77,12.2
0.049231,734.9,48.0,1165.7,107.2,2819.9,259.1,728.6,1161.2,2821.6,156,76.8,13.1
0.051231,739.5,50.8,1167.7,113.0,2838.7,275.4,733.4,1172.4,2840,155.5,76.6,13.1
0.053231,744.1,54.4,1170.5,121.4,2867.8,277.7,738.9,1182.7,2860.5,155,76.3,12.5
0.055231,748.7,59.3,1173.9,131.3,2899.0,268.9,744.9,1192.1,2882.8,154.5,76,11.6
0.057231,752.0,62.5,1178.3,138.9,2924.0,257.2,751.6,1200.4,2906.4,154,75.8,10.7
0.059231,752.6,62.2,1184.7,143.1,2940.9,247.8,758.9,1207.6,2930.7,153.6,75.5,10.1
0.061231,751.0,59.9,1193.0,145.7,2949.2,245.8,766.8,1213.7,2955,153.1,75.2,9.6
0.063231,750.0,57.4,1204.6,149.8,2955.2,255.5,775.3,1218.7,2978.7,152.7,74.9,9.1
0.065231,753.8,57.7,1218.6,162.6,2964.2,284.0,784.5,1222.8,3001.1,152.3,74.6,8.6
0.067231,765.9,63.9,1230.7,194.5,2977.5,335.4,794.1,1226.1,3021.8,151.9,74.2,8
0.069231,789.3,75.6,1236.5,247.3,2994.6,399.1,804.3,1228.6,3040.1,151.5,73.8,7.2
0.071231,817.6,86.2,1235.1,282.6,3015.3,437.8,814.9,1230.7,3055.9,151.2,73.4,6
0.073231,843.6,93.9,1232.6,266.8,3045.7,443.9,825.8,1232.5,3068.8,150.9,73,4.6
0.075231,863.0,97.0,1234.0,229.1,3079.8,431.6,837,1234.1,3078.9,150.5,72.8,3.5
0.077231,874.7,95.7,1237.4,206.7,3106.1,420.5,848.3,1235.8,3086.1,150.2,72.6,3
0.079231,880.0,95.6,1239.7,205.6,3119.7,429.0,859.6,1237.7,3090.8,150,72.5,3.4
0.081231,882.2,99.5,1240.7,226.0,3118.4,462.6,870.8,1240,3093.2,149.7,72.4,4.9
0.083231,886.2,103.3,1242.9,258.2,3109.8,505.9,881.8,1242.8,3093.7,149.4,72.3,6.9
0.085231,892.7,103.1,1250.2,280.1,3104.5,541.7,892.3,1246.3,3093,149.2,72.2,9.2
0.087231,899.8,101.3,1261.8,280.9,3104.3,568.5,902.4,1250.6,3091.3,148.9,72.1,11.1
0.089231,906.2,100.4,1271.4,270.0,3107.6,586.8,911.7,1255.5,3089.4,148.7,72.1,12.4
0.091231,911.5,101.1,1274.7,261.5,3112.0,600.0,920.3,1261.3,3087.6,148.5,72.1,13.4
0.093231,917.5,103.3,1275.6,262.0,3112.3,622.6,928,1267.7,3086.2,148.3,72,14.2
0.095231,924.6,105.1,1278.1,270.1,3106.1,652.5,934.7,1274.8,3085.4,148,72,14.7
0.097231,931.7,104.3,1281.8,277.0,3099.2,674.1,940.3,1282.4,3085.4,147.8,72,15
0.099231,940.5,102.0,1285.8,285.2,3092.6,693.6,944.8,1290.4,3086,147.6,72,14.9
0.101231,950.7,99.3,1291.9,303.3,3084.2,721.1,948,1298.7,3087,147.4,72,14.1
0.103231,958.2,95.1,1301.8,328.4,3075.7,750.5,950,1307,3088,147.2,71.9,13
0.105231,958.9,91.4,1311.2,344.6,3070.1,768.0,950.8,1315.2,3088.4,147,71.8,11.8
0.107231,955.3,91.4,1317.7,347.1,3063.9,773.8,950.4,1323.1,3087.5,146.7,71.8,11.1
0.109231,950.1,94.4,1323.2,338.6,3054.6,770.8,948.8,1330.5,3084.5,146.5,71.7,10.9
0.111231,944.8,97.7,1327.3,324.6,3045.4,768.2,946,1337.3,3078.8,146.3,71.6,11.4
0.113231,939.0,100.4,1331.1,312.6,3036.1,781.1,942.3,1343.3,3069.6,146,71.5,12.2
0.115231,932.7,101.7,1337.2,308.8,3027.3,813.0,937.6,1348.5,3056.1,145.8,71.5,13.1
0.117231,926.9,101.8,1344.2,310.3,3022.3,857.4,932,1352.6,3037.7,145.5,71.4,13.7
0.119231,920.8,103.7,1348.8,313.0,3012.9,932.0,925.8,1355.6,3014.2,145.3,71.3,14
0.121231,913.9,108.7,1352.0,318.0,2985.5,1050.6,919,1357.6,2985.2,145,71.2,14.1
0.123231,906.5,114.1,1357.8,326.1,2942.1,1199.2,911.8,1358.6,2950.8,144.8,71,14
0.125231,901.0,117.8,1363.8,335.3,2905.4,1330.4,904.3,1358.5,2911.3,144.5,70.9,13.8
0.127231,897.5,122.4,1367.6,348.6,2873.7,1432.1,896.6,1357.5,2867.2,144.2,70.7,13.5
0.129231,894.3,128.2,1371.6,371.3,2830.7,1504.0,889,1355.7,2819.4,144,70.5,12.9
0.131231,890.4,131.1,1375.4,399.0,2790.4,1527.6,881.5,1353.2,2768.9,143.7,70.3,12.1
0.133231,884.8,132.3,1374.8,436.7,2759.3,1514.4,874.2,1350.2,2716.8,143.4,70.2,11.2
0.135231,878.1,134.5,1367.6,493.5,2726.1,1464.9,867.4,1346.9,2664.6,143.2,70.1,10.2
0.137231,871.4,134.5,1357.4,564.5,2684.8,1392.7,861.1,1343.4,2613.8,142.9,70.1,9.4
0.139231,864.3,130.5,1345.0,635.4,2637.6,1329.9,855.4,1339.9,2565.9,142.6,70.1,9
0.141231,856.4,126.7,1331.1,678.4,2588.2,1300.6,850.5,1336.6,2522.3,142.4,70.2,8.8
0.143231,847.2,124.2,1321.8,688.3,2532.6,1307.6,846.3,1333.7,2484.5,142.1,70.3,8.9
0.145231,838.9,120.2,1322.5,697.5,2475.5,1340.7,843,1331.3,2453.7,141.9,70.3,9
0.147231,832.6,116.0,1325.6,760.3,2407.7,1361.9,840.6,1329.4,2430.9,141.7,70.3,8.9
0.149231,827.8,114.5,1323.1,934.2,2309.9,1309.4,839.1,1328.3,2416.9,141.5,70.1,8.4
0.151231,823.9,118.0,1295.9,1188.0,2231.9,1154.9,838.7,1327.9,2412.2,141.3,69.8,7.7
