time,f1,b1,f2,b2,f3,b3,f1p,f2p,f3p,f0,intensity,harmonicity
0.025460,402.7,80.1,2691.8,136.7,3116.5,662.9,407.7,2714.7,3125.1,224.5,67.9,15.7
0.027460,406.5,70.8,2701.8,141.0,3124.3,692.9,409.6,2713.7,3119.4,224.2,68.3,16.2
0.029460,411.5,62.2,2711.6,148.2,3118.9,709.8,412.5,2712,3110.1,223.8,68.7,16.5
0.031460,417.5,54.3,2718.2,158.6,3100.6,706.0,416.3,2709.7,3097.7,223.4,69.1,16.6
0.033460,423.4,46.9,2719.0,174.2,3076.3,680.6,420.7,2706.9,3082.7,222.9,69.4,16.6
0.035460,428.5,40.6,2713.9,192.0,3059.7,652.5,425.4,2703.6,3065.6,222.4,69.8,16.7
0.037460,432.7,35.9,2707.0,205.5,3052.6,646.1,430.2,2700.1,3047.4,221.8,70.1,16.7
0.039460,436.4,31.9,2702.2,216.3,3039.8,660.4,434.6,2696.3,3028.6,221.1,70.4,16.9
0.041460,439.5,28.5,2698.6,228.9,3009.8,662.4,438.6,2692.5,3010,220.4,70.7,17.2
0.043460,441.9,25.4,2692.3,242.6,2976.8,629.0,441.7,2688.6,2992.4,219.6,71,17.4
0.045460,443.5,22.6,2683.0,249.0,2960.2,584.7,444,2684.8,2976.4,218.8,71.3,17.4
0.047460,444.5,20.4,2675.8,246.3,2958.8,554.4,445.3,2681.2,2962.5,217.9,71.6,17.2
0.049460,445.2,18.6,2672.2,243.2,2961.7,524.6,445.8,2677.7,2951.2,216.9,72,16.6
0.051460,445.4,17.3,2671.0,248.5,2958.4,476.8,445.4,2674.4,2942.7,215.9,72.3,15.8
0.053460,444.9,16.5,2670.2,259.8,2947.4,416.3,444.3,2671.4,2937.3,214.8,72.6,14.8
0.055460,443.7,16.1,2670.1,264.3,2936.9,367.0,442.9,2668.5,2934.8,213.7,72.9,13.8
0.057460,442.0,16.2,2670.7,256.4,2931.5,339.4,441.3,2665.9,2935,212.5,73.1,12.9
0.059460,440.1,17.1,2668.1,241.5,2932.0,320.6,439.9,2663.5,2937.8,211.3,73.4,12
0.061460,438.2,19.1,2659.2,226.2,2939.0,300.5,438.9,2661.3,2942.6,210,73.6,11.2
0.063460,437.0,22.6,2647.4,213.7,2949.2,278.6,438.6,2659.3,2949,208.6,73.7,10.4
0.065460,436.8,28.0,2639.5,207.2,2957.6,260.7,439.2,2657.5,2956.4,207.3,73.8,9.8
0.067460,437.7,35.2,2640.3,207.1,2962.2,251.9,440.7,2655.9,2964.2,205.9,73.8,9.3
0.069460,440.2,44.7,2649.8,204.9,2966.4,253.3,443.3,2654.4,2971.9,204.5,73.7,9.1
0.071460,444.3,56.1,2661.7,190.1,2973.5,260.9,446.8,2653.2,2978.8,203,73.6,9.2
0.073460,450.0,69.0,2669.5,164.6,2982.3,265.0,451.3,2652.3,2984.7,201.6,73.5,9.3
0.075460,457.2,82.4,2671.4,137.9,2989.1,259.1,456.5,2651.6,2989,200.1,73.5,9.5
0.077460,465.1,94.5,2668.9,116.0,2993.4,244.3,462.2,2651.2,2991.5,198.6,73.4,9.7
0.079460,473.3,104.4,2663.4,98.9,2996.2,223.9,468.1,2651,2992.3,197.1,73.2,10
0.081460,480.0,109.6,2656.1,88.3,2996.9,203.5,473.9,2651.1,2991.1,195.7,73.1,10.4
0.083460,484.7,109.8,2647.7,83.9,2995.3,186.7,479.4,2651.5,2988.3,194.2,73,10.8
0.085460,487.9,106.3,2639.3,84.4,2991.1,176.2,484.4,2652,2984.1,192.7,72.9,11
0.087460,490.0,101.2,2633.2,89.5,2983.6,174.6,488.6,2652.7,2978.9,191.3,72.7,11
0.089460,491.4,95.4,2632.1,100.7,2972.4,185.1,491.8,2653.4,2973,189.9,72.6,10.5
0.091460,491.8,89.3,2639.0,116.6,2960.0,211.4,494.1,2654,2967,188.5,72.5,9.7
0.093460,491.4,84.1,2653.2,129.3,2950.1,253.1,495.4,2654.4,2961.5,187.1,72.4,8.8
0.095460,490.2,81.0,2667.0,128.2,2947.4,298.3,495.6,2654.6,2956.8,185.7,72.4,8
0.097460,488.2,79.4,2671.7,116.0,2951.4,324.4,495,2654.3,2953.5,184.4,72.4,7.4
0.099460,486.7,77.6,2668.0,105.2,2954.3,327.8,493.7,2653.6,2951.9,183.1,72.4,7.2
0.101460,486.6,73.9,2659.7,100.3,2953.2,321.1,491.9,2652.3,2952.2,181.8,72.4,7.2
0.103460,488.2,68.9,2648.8,101.2,2953.7,310.5,489.7,2650.4,2954.8,180.5,72.3,7.4
0.105460,490.5,64.7,2636.8,105.2,2960.9,296.8,487.3,2647.9,2959.5,179.3,72.2,7.5
0.107460,491.1,62.5,2628.0,110.0,2971.4,285.2,485,2644.8,2966.3,178.2,71.9,7.6
0.109460,489.0,61.9,2626.3,113.6,2980.4,282.1,482.9,2641.2,2974.9,177,71.7,7.6
0.111460,485.2,62.0,2632.0,111.2,2988.6,287.4,481.1,2637.1,2985.1,176,71.4,7.5
0.113460,481.9,61.1,2640.0,101.3,2999.7,289.9,479.6,2632.8,2996.3,174.9,71.2,7.4
0.115460,480.3,58.1,2644.7,89.3,3011.6,280.8,478.5,2628.4,3008.1,173.9,71,7.3
0.117460,480.8,54.4,2644.0,80.8,3019.4,264.3,477.7,2624,3019.9,173,70.8,7.3
0.119460,481.9,50.7,2637.7,75.6,3024.2,246.2,477.3,2619.9,3031,172.1,70.6,7.5
0.121460,481.8,48.1,2627.1,72.4,3030.4,229.5,477.1,2616.3,3041.1,171.2,70.5,7.8
0.123460,479.4,46.9,2613.7,69.3,3042.1,214.0,477,2613.2,3049.5,170.4,70.3,8.1
0.125460,474.9,46.2,2602.3,65.9,3056.5,202.9,477.1,2610.9,3055.8,169.6,70.1,8.2
0.127460,470.0,45.0,2595.6,64.9,3065.1,200.8,477.1,2609.5,3059.7,168.9,69.8,7.9
0.129460,466.5,43.2,2589.9,68.6,3067.5,210.9,477.1,2609,3061,168.3,69.4,7
