time,f1,b1,f2,b2,f3,b3,f1p,f2p,f3p,f0,intensity,harmonicity
0.025370,646.9,102.2,2379.5,72.7,3145.1,293.8,665.8,2361,3109,141.4,64.5,11.6
0.027370,656.4,96.6,2369.5,76.6,3131.9,303.8,667.3,2357.8,3104.7,141.3,64.8,11.5
0.029370,666.4,92.9,2357.2,81.5,3110.8,307.8,669.9,2352.7,3097.7,141.1,65.2,11.3
0.031370,675.7,89.4,2344.3,83.5,3086.4,295.3,673.5,2345.8,3088.3,141,65.5,11.1
0.033370,683.8,86.4,2332.0,81.9,3066.4,270.5,678.1,2337.5,3077.1,140.8,65.8,10.9
0.035370,691.4,85.1,2319.9,80.6,3048.1,243.8,683.6,2327.9,3064.4,140.6,66,10.8
0.037370,699.1,84.1,2307.4,81.3,3029.3,220.3,689.9,2317.5,3050.9,140.5,66.3,10.6
0.039370,706.4,81.7,2295.6,81.0,3013.4,200.7,697,2306.6,3037.2,140.3,66.5,10.5
0.041370,712.4,79.4,2285.9,79.4,3002.7,184.5,704.7,2295.5,3023.8,140.1,66.7,10.4
0.043370,718.4,78.9,2277.0,78.4,2994.5,168.4,713,2284.6,3011.2,139.8,66.8,10.3
0.045370,724.9,78.8,2268.8,79.2,2988.5,154.5,721.6,2274.3,2999.8,139.6,67,10.3
0.047370,731.7,77.6,2262.1,81.6,2984.7,146.4,730.4,2264.6,2990.1,139.4,67.1,10.3
0.049370,738.9,77.0,2256.8,87.0,2982.4,144.1,739.2,2255.9,2982.2,139.1,67.2,10.5
0.051370,746.5,77.8,2252.4,95.0,2980.5,144.1,747.8,2248.3,2976.3,138.9,67.3,10.8
0.053370,754.0,77.3,2247.7,101.7,2979.4,142.9,756,2241.7,2972.2,138.6,67.4,11.2
0.055370,760.5,75.2,2243.1,106.1,2980.6,141.6,763.7,2236.2,2969.9,138.3,67.5,11.5
0.057370,766.4,74.5,2240.3,111.6,2984.2,141.5,770.6,2231.7,2969.2,138.1,67.6,11.6
0.059370,772.4,75.0,2238.5,118.2,2987.6,141.0,776.6,2228.2,2969.7,137.8,67.8,11.4
0.061370,777.5,73.2,2234.7,120.8,2987.9,139.5,781.6,2225.3,2971,137.5,67.9,11
0.063370,780.9,69.6,2227.9,119.1,2985.9,139.4,785.5,2222.9,2972.7,137.2,68.1,10.6
0.065370,782.8,67.1,2220.3,116.2,2982.8,143.1,788.3,2220.9,2974.3,137,68.2,10.3
0.067370,784.4,65.1,2214.1,113.3,2978.9,147.6,790,2219,2975.6,136.7,68.4,10.3
0.069370,786.6,61.8,2209.4,111.1,2974.9,150.1,790.7,2217.1,2976.1,136.4,68.5,10.9
0.071370,788.8,58.9,2207.0,112.6,2970.7,152.3,790.5,2214.9,2975.6,136.1,68.6,12
0.073370,790.1,57.5,2206.6,119.0,2965.0,155.9,789.4,2212.4,2973.8,135.8,68.7,13.1
0.075370,790.8,56.1,2206.1,125.8,2958.2,158.8,787.8,2209.5,2970.8,135.5,68.7,14.1
0.077370,791.5,53.6,2203.9,130.7,2952.4,162.2,785.8,2206.2,2966.5,135.3,68.8,14.5
0.079370,791.6,52.1,2201.1,136.6,2948.6,171.7,783.5,2202.5,2961,135,68.8,14.2
0.081370,790.2,52.0,2198.7,144.4,2945.3,186.8,781.2,2198.5,2954.6,134.7,68.8,13.3
0.083370,787.6,51.2,2195.9,150.0,2941.7,197.9,778.9,2194.2,2947.5,134.5,68.8,12.2
0.085370,784.6,49.3,2192.7,155.0,2938.0,202.9,777,2189.8,2940.1,134.2,68.7,11.3
0.087370,780.2,48.1,2188.6,165.6,2933.6,209.3,775.3,2185.4,2932.8,133.9,68.7,11.1
0.089370,774.1,47.7,2182.7,180.8,2926.8,220.0,774,2181.2,2925.9,133.7,68.7,11.8
0.091370,768.7,46.9,2176.2,188.0,2920.0,226.0,773.1,2177.3,2919.9,133.5,68.6,13.1
0.093370,765.4,46.1,2172.1,184.0,2915.1,223.9,772.4,2173.9,2915,133.2,68.6,14.6
0.095370,763.7,46.3,2170.6,174.1,2911.5,217.4,771.9,2171.1,2911.5,133,68.6,16
0.097370,763.8,46.1,2169.3,163.1,2909.7,207.9,771.3,2169,2909.8,132.7,68.7,16.9
0.099370,765.3,44.4,2167.0,155.2,2912.8,198.4,770.4,2167.6,2909.8,132.5,68.7,17.2
0.101370,766.2,43.2,2166.1,153.2,2922.0,192.9,769.1,2167,2911.7,132.3,68.8,17.2
0.103370,765.2,43.7,2168.2,153.9,2934.5,188.6,767.1,2167.1,2915.5,132.1,68.8,16.9
0.105370,762.6,44.5,2170.7,151.2,2943.3,181.0,764.1,2167.9,2921,131.9,68.9,16.5
0.107370,759.5,44.7,2171.8,145.7,2946.3,172.1,760.1,2169.3,2928,131.6,68.9,16.1
0.109370,755.0,45.8,2174.6,143.7,2946.5,167.8,754.8,2171.2,2936.4,131.4,68.9,15.6
0.111370,747.8,47.9,2179.8,145.0,2946.5,167.8,748.1,2173.5,2945.9,131.2,68.9,15
0.113370,739.8,48.6,2183.1,144.3,2947.5,166.9,740.1,2176.1,2956.1,131,68.8,14.3
0.115370,732.6,48.0,2182.1,140.9,2950.8,166.0,730.8,2178.9,2966.8,130.8,68.8,13.6
0.117370,724.2,47.9,2179.2,137.6,2957.7,169.8,720.4,2181.8,2977.6,130.6,68.7,12.9
0.119370,712.6,48.0,2176.9,133.6,2967.5,176.9,709,2184.6,2988.3,130.4,68.6,12.3
0.121370,701.3,46.5,2175.7,128.5,2976.8,181.1,697,2187.2,2998.7,130.2,68.6,11.7
0.123370,691.0,44.1,2176.8,127.5,2988.7,189.3,684.8,2189.7,3008.4,130.1,68.5,11
0.125370,679.1,42.1,2182.8,135.7,3007.9,215.0,672.6,2191.9,3017.3,129.9,68.4,10.5
0.127370,665.8,40.0,2192.4,144.8,3031.1,250.8,660.9,2193.9,3025.2,129.7,68.4,10
0.129370,654.4,37.1,2199.3,140.1,3047.5,267.0,650.1,2195.5,3032.1,129.5,68.3,9.9
0.131370,645.5,34.7,2201.2,125.1,3051.6,253.9,640.7,2196.8,3037.8,129.4,68.3,9.9
0.133370,635.4,33.8,2202.0,111.5,3049.3,229.1,632.9,2197.9,3042.3,129.2,68.2,10
0.135370,624.0,33.4,2203.0,105.3,3046.7,211.4,627.2,2198.6,3045.5,129.1,68.1,9.9
0.137370,614.1,32.1,2202.9,105.1,3049.1,209.9,623.6,2199,3047.4,128.9,67.9,9.5
0.139370,606.1,31.5,2202.2,108.2,3060.2,222.3,622.4,2199.2,3048.1,128.8,67.7,8.4
