time,f1,b1,f2,b2,f3,b3,f1p,f2p,f3p,f0,intensity,harmonicity
0.025066,664.6,100.4,1173.9,783.3,2589.6,605.4,696.3,1090.6,2629.2,0,64.2,-16.8
0.027066,672.7,90.7,1131.2,689.3,2565.9,424.9,697,1093.2,2632.6,0,65.4,11.5
0.029066,681.9,85.8,1091.6,658.3,2577.5,329.8,698.1,1097.4,2638.1,0,66.3,17.6
0.031066,689.7,83.7,1058.1,646.5,2606.8,280.1,699.7,1103.2,2645.8,0,66.8,14.5
0.033066,696.6,84.0,1041.8,621.0,2648.8,253.5,701.6,1110.4,2655.3,0,67.2,7.4
0.035066,704.6,86.9,1046.4,572.9,2696.2,234.1,704,1118.9,2666.6,0,67.4,1.2
0.037066,715.5,89.6,1065.8,530.6,2733.1,216.9,706.8,1128.6,2679.5,0,67.6,0
0.039066,725.9,87.2,1098.7,512.2,2750.2,209.5,709.9,1139.3,2693.6,0,67.8,-0.3
0.041066,731.3,80.2,1142.8,499.1,2752.7,215.1,713.4,1150.8,2708.9,0,68.1,-0.4
0.043066,732.6,71.8,1183.5,474.3,2751.8,223.7,717.2,1162.8,2724.9,0,68.4,-0.2
0.045066,733.0,63.1,1213.3,442.5,2756.9,224.2,721.2,1175.2,2741.4,0,68.9,0.4
0.047066,734.7,56.7,1236.3,417.4,2770.2,215.5,725.5,1187.8,2758.2,0,69.3,1.8
0.049066,738.3,54.9,1252.1,408.6,2786.9,201.7,730,1200.2,2774.9,137.9,69.6,4
0.051066,743.5,56.2,1257.4,414.4,2802.1,186.9,734.5,1212.4,2791.4,137.8,69.9,6.7
0.053066,749.0,57.5,1255.6,426.4,2816.7,172.2,739.2,1224.2,2807.3,137.7,70.1,9.5
0.055066,754.8,59.2,1252.6,442.0,2832.2,158.4,743.8,1235.3,2822.5,137.5,70.2,11.9
0.057066,761.1,62.7,1250.8,458.5,2846.1,147.1,748.5,1245.7,2836.7,137.4,70.2,13.6
0.059066,766.2,65.5,1252.3,463.6,2856.7,139.8,753,1255.1,2849.9,137.2,70.2,14.9
0.061066,767.9,65.0,1261.1,446.6,2865.4,138.0,757.3,1263.5,2861.8,137.1,70.2,15.9
0.063066,766.5,63.0,1277.0,411.1,2873.0,143.4,761.4,1270.9,2872.4,136.9,70.2,16.6
0.065066,764.8,62.4,1291.3,379.0,2879.6,154.0,765.2,1277.1,2881.6,136.7,70.2,16.9
0.067066,763.9,62.5,1297.7,365.1,2885.0,162.8,768.7,1282.2,2889.4,136.6,70.3,16.6
0.069066,763.2,62.9,1297.9,367.0,2887.3,169.1,771.8,1286.1,2895.8,136.4,70.3,15.5
0.071066,762.1,64.6,1292.7,381.4,2885.0,178.0,774.4,1289,2900.8,136.2,70.4,13.8
0.073066,762.0,66.7,1282.2,398.3,2880.6,185.8,776.6,1290.8,2904.6,136,70.6,12.2
0.075066,763.5,67.9,1268.9,404.9,2879.3,186.6,778.4,1291.7,2907.1,135.8,70.7,11
0.077066,765.7,70.0,1255.7,396.8,2881.8,180.9,779.6,1291.7,2908.7,135.6,70.8,10.7
0.079066,767.9,73.9,1244.7,381.1,2886.3,172.0,780.4,1291,2909.3,135.5,70.9,10.9
0.081066,769.9,76.7,1238.4,364.1,2892.3,161.9,780.6,1289.6,2909.1,135.3,70.9,11.6
0.083066,771.0,75.0,1240.5,341.6,2898.3,155.0,780.5,1287.9,2908.4,135.1,70.9,12.5
0.085066,770.6,71.2,1251.0,309.7,2901.5,156.6,779.9,1285.7,2907.3,135,70.9,13.4
0.087066,769.2,68.0,1264.4,275.9,2900.9,165.5,779,1283.4,2905.9,134.8,70.9,14.4
0.089066,768.3,64.8,1275.4,251.9,2899.4,172.9,777.9,1281,2904.4,134.7,70.9,15.8
0.091066,768.6,61.6,1285.2,239.1,2900.2,174.3,776.5,1278.7,2903.1,134.6,70.8,17.4
0.093066,770.1,60.6,1294.5,235.1,2902.8,172.1,775,1276.6,2901.9,134.5,70.8,18.7
0.095066,772.4,61.8,1300.0,238.7,2907.5,166.8,773.4,1274.8,2901.1,134.4,70.7,19.4
0.097066,774.7,62.2,1300.8,244.9,2914.6,158.4,771.9,1273.4,2900.7,134.3,70.7,19.2
0.099066,776.6,61.3,1297.8,246.3,2921.0,150.9,770.5,1272.4,2900.9,134.3,70.6,17.8
0.101066,778.9,61.7,1292.7,242.7,2924.4,147.6,769.4,1271.9,2901.8,134.3,70.5,15.7
0.103066,782.2,63.1,1288.6,237.2,2925.9,146.4,768.5,1272,2903.2,134.3,70.5,13.6
0.105066,785.8,62.1,1288.4,228.0,2927.1,144.7,768.1,1272.6,2905.4,134.3,70.4,12.1
0.107066,788.6,59.6,1292.1,214.7,2927.7,145.0,768,1273.7,2908.2,134.4,70.5,11.5
0.109066,790.3,59.0,1295.9,203.9,2927.0,149.0,768.6,1275.4,2911.7,134.4,70.5,12
0.111066,790.9,59.3,1297.0,198.5,2927.0,151.9,769.6,1277.5,2915.8,134.6,70.6,12.9
0.113066,790.5,58.5,1295.8,194.4,2928.8,152.5,771.3,1280,2920.4,134.7,70.7,13.9
0.115066,788.6,58.0,1292.6,189.0,2932.1,156.2,773.5,1282.9,2925.5,134.9,70.7,14.6
0.117066,785.4,60.1,1287.9,185.9,2935.8,165.2,776.3,1286,2931.1,135.1,70.8,14.5
0.119066,783.2,62.7,1283.6,188.2,2940.3,172.7,779.7,1289.3,2936.9,135.3,70.9,13.7
0.121066,783.6,63.7,1283.4,195.7,2944.6,177.1,783.7,1292.6,2943,135.6,70.9,12.7
0.123066,786.0,64.5,1289.2,208.0,2948.1,184.2,788.1,1295.9,2949.2,135.9,71,11.5
0.125066,788.7,65.2,1298.0,221.1,2950.9,192.4,792.8,1299.1,2955.4,136.2,71.2,10.5
0.127066,790.3,63.8,1304.3,227.6,2952.5,195.6,797.9,1302,2961.5,136.6,71.3,9.8
0.129066,790.9,61.1,1307.1,227.1,2951.5,195.4,803.3,1304.7,2967.5,137,71.4,9.2
0.131066,791.4,60.2,1306.8,225.6,2949.0,194.2,808.7,1306.9,2973.3,137.5,71.4,8.7
0.133066,792.0,61.7,1303.3,227.7,2948.3,190.9,814.1,1308.6,2978.7,137.9,71.5,8.3
0.135066,793.2,64.5,1297.3,236.3,2950.1,187.2,819.4,1309.8,2983.7,138.4,71.5,8.1
0.137066,795.6,70.1,1287.6,257.9,2951.0,187.9,824.5,1310.4,2988.3,139,71.5,8.3
0.139066,800.0,80.9,1271.8,300.4,2952.2,193.2,829.2,1310.4,2992.5,139.5,71.5,8.8
0.141066,806.7,94.3,1256.7,365.3,2962.8,195.0,833.5,1309.7,2996.2,140.1,71.5,9.6
0.143066,815.1,104.7,1250.7,429.6,2983.2,190.9,837.3,1308.3,2999.3,140.7,71.5,10.3
0.145066,825.0,113.0,1252.1,457.6,3004.2,187.5,840.5,1306.3,3002,141.4,71.4,10.8
0.147066,839.8,120.9,1259.8,469.5,3023.2,184.2,842.9,1303.7,3004.1,142.1,71.4,10.8
0.149066,854.7,120.1,1277.9,469.3,3036.7,180.0,844.7,1300.5,3005.8,142.8,71.3,10.4
0.151066,864.1,110.3,1308.5,438.4,3045.3,176.7,845.7,1296.7,3007,143.5,71.1,9.8
0.153066,869.4,99.4,1339.9,382.0,3050.6,176.4,846,1292.4,3007.8,144.2,70.9,9
0.155066,872.8,92.2,1356.1,330.9,3052.0,179.9,845.6,1287.7,3008.3,145,70.6,8.1
0.157066,873.6,87.5,1351.1,295.9,3045.3,189.5,844.4,1282.7,3008.4,145.8,70.3,7.1
0.159066,871.4,84.0,1328.3,269.1,3025.6,204.5,842.6,1277.4,3008.1,146.6,70,5.6
0.161066,867.3,83.1,1299.6,253.8,3001.5,215.5,840.3,1271.9,3007.7,147.4,69.8,3.8
0.163066,861.5,83.2,1279.7,253.4,2990.1,225.4,837.4,1266.4,3007.1,148.2,69.5,2.3
0.165066,852.9,81.1,1274.7,261.2,2994.7,243.4,834.2,1260.8,3006.3,149,69.2,1.3
0.167066,841.7,77.2,1280.5,270.9,3008.1,275.4,830.7,1255.4,3005.4,149.8,69,1.1
0.169066,830.6,73.5,1287.3,275.2,3019.3,318.9,827,1250.2,3004.4,150.6,68.7,1.7
0.171066,822.3,73.1,1286.2,274.9,3017.5,362.0,823.3,1245.2,3003.5,151.4,68.3,2.7
0.173066,817.2,79.5,1274.7,283.4,3004.5,395.8,819.7,1240.6,3002.5,152.2,68,4
0.175066,815.5,93.7,1253.7,310.6,2995.2,420.0,816.3,1236.5,3001.6,153,67.6,5.2
0.177066,815.8,112.4,1226.6,351.3,3001.4,440.8,813.2,1232.9,3000.8,153.8,67.3,6.1
0.179066,813.8,131.2,1199.1,385.7,3010.0,477.2,810.5,1229.8,3000.2,154.5,67,7
0.181066,806.0,145.3,1178.5,396.8,2997.2,551.7,808.3,1227.4,2999.6,155.2,66.7,7.8
0.183066,792.7,149.4,1170.4,388.7,2975.4,641.1,806.7,1225.6,2999.2,155.9,66.4,8.4
0.185066,775.8,142.7,1175.9,372.0,2970.4,750.6,805.7,1224.6,2998.9,156.5,66.2,8.8
0.187066,758.6,128.8,1194.4,355.5,2976.6,904.4,805.4,1224.2,2998.9,157.1,65.9,8.6
