time,f1,b1,f2,b2,f3,b3,f1p,f2p,f3p,f0,intensity,harmonicity
0.025694,440.9,15.0,1609.7,290.9,2451.2,71.2,443,1649,2475,211.9,54.4,16.2
0.027694,438.8,14.3,1626.9,231.0,2455.3,75.2,441.8,1648.7,2474.1,211.2,54.9,16.6
0.029694,436.3,14.3,1648.5,177.7,2465.8,77.9,440,1648.2,2472.5,210.4,55.4,16.8
0.031694,433.5,14.4,1669.1,144.5,2478.9,78.6,437.4,1647.7,2470.3,209.6,55.7,16.9
0.033694,430.2,14.1,1685.1,127.4,2488.7,81.0,434.3,1647.2,2467.7,208.8,55.9,16.8
0.035694,426.9,13.6,1693.3,124.6,2490.7,86.0,430.7,1646.8,2464.6,207.9,56.1,16.6
0.037694,423.6,14.1,1693.2,136.8,2484.1,88.7,426.8,1646.7,2461.1,206.9,56.3,16.2
0.039694,420.8,15.7,1685.4,166.6,2471.4,83.7,422.5,1646.9,2457.4,205.9,56.4,15.7
0.041694,418.6,18.2,1672.5,213.4,2457.4,73.2,418.2,1647.8,2453.6,204.9,56.4,15.2
0.043694,417.0,21.2,1657.7,269.1,2444.6,63.5,413.9,1649.3,2449.7,203.8,56.5,14.8
0.045694,416.0,24.1,1643.1,315.7,2434.0,58.6,409.8,1651.7,2445.9,202.6,56.5,14.9
0.047694,415.0,26.9,1624.8,359.1,2424.3,56.7,406,1655.1,2442.2,201.4,56.5,15.4
0.049694,413.6,28.8,1604.2,404.3,2416.4,55.9,402.6,1659.6,2438.7,200.2,56.5,16.2
0.051694,411.8,29.6,1589.3,450.0,2412.2,55.7,399.7,1665.1,2435.6,198.9,56.4,16.9
0.053694,409.4,28.9,1592.8,485.4,2415.7,56.7,397.4,1671.9,2432.9,197.6,56.3,17.1
0.055694,406.5,27.0,1616.8,499.4,2428.8,56.3,395.9,1679.9,2430.7,196.3,56,16.7
0.057694,402.2,24.5,1652.7,491.8,2444.9,51.3,395.1,1689.1,2428.9,194.9,55.7,15.5
0.059694,397.0,22.9,1691.8,470.7,2452.0,44.8,395.1,1699.3,2427.7,193.5,55.4,13.9
0.061694,391.7,23.1,1730.5,452.5,2448.9,41.4,396,1710.6,2426.9,192,55.1,12.3
0.063694,388.1,25.1,1761.7,451.8,2439.3,42.9,397.6,1722.8,2426.7,190.5,54.9,11
0.065694,387.7,26.9,1781.6,452.2,2428.7,48.4,400,1735.7,2427,189,54.8,10.4
0.067694,389.3,27.1,1792.7,419.3,2420.5,55.6,403.1,1749.1,2427.8,187.5,54.7,10.4
0.069694,391.3,26.2,1796.5,362.0,2418.0,61.4,406.8,1762.9,2428.9,186,54.5,10.7
0.071694,393.6,25.9,1798.9,315.2,2422.3,65.3,411,1776.7,2430.4,184.5,54.2,11
0.073694,396.7,28.3,1802.1,301.7,2432.5,68.6,415.7,1790.3,2432.1,182.9,53.7,11
0.075694,401.6,35.7,1804.8,331.6,2441.7,70.6,420.7,1803.5,2434,181.3,52.9,10.2
0.077694,412.9,52.3,1809.9,411.2,2442.5,70.1,425.9,1816.1,2436,179.8,52,8.6
0.079694,435.9,74.4,1828.9,503.9,2435.7,68.6,431.2,1827.7,2438,178.2,50.9,6.6
0.081694,464.0,83.8,1866.1,539.6,2430.8,69.8,436.4,1838.3,2439.9,176.7,50.1,4.7
0.083694,478.3,79.1,1901.3,520.4,2432.6,76.2,441.4,1847.5,2441.6,175.2,49.6,3.2
0.085694,476.5,75.7,1913.4,506.7,2439.7,88.5,446.2,1855.2,2443.2,173.7,49.5,2.6
0.087694,467.0,78.1,1897.9,511.6,2450.1,106.5,450.5,1861.3,2444.4,172.2,49.7,2.9
0.089694,455.8,85.3,1859.6,521.9,2459.1,121.6,454.3,1865.6,2445.3,170.7,49.9,3.6
0.091694,447.3,96.7,1816.3,538.1,2462.4,126.2,457.6,1868.2,2445.9,169.3,50.1,4.4
0.093694,445.6,108.5,1788.5,573.8,2457.8,119.6,460.3,1869,2446,167.9,50.3,5.1
0.095694,452.2,108.2,1788.2,624.2,2446.8,110.3,462.3,1868,2445.7,166.6,50.4,5.3
0.097694,462.4,91.6,1808.9,673.6,2431.4,101.7,463.7,1865.3,2445.1,165.3,50.5,5.1
0.099694,468.6,72.2,1830.5,697.2,2418.4,93.6,464.3,1861,2444,164,50.7,4.7
0.101694,469.5,57.2,1843.5,681.3,2412.9,87.1,464.3,1855.2,2442.7,162.8,51,4.4
0.103694,467.3,46.0,1853.2,618.3,2416.9,84.3,463.7,1848.1,2441,161.6,51.2,4.5
0.105694,464.0,38.8,1861.1,527.2,2427.4,84.2,462.5,1839.9,2439,160.5,51.3,5.1
0.107694,459.7,34.8,1860.4,422.8,2439.8,81.5,460.8,1830.7,2436.9,159.5,51.3,6.5
0.109694,455.0,33.8,1847.4,328.3,2448.4,75.3,458.7,1820.8,2434.7,158.4,51.2,8.2
0.111694,450.2,35.2,1827.7,254.5,2453.5,69.7,456.2,1810.5,2432.4,157.5,50.9,9.8
0.113694,445.3,38.3,1807.9,209.6,2455.6,67.2,453.4,1799.9,2430.2,156.6,50.4,11
0.115694,440.3,41.0,1793.9,195.1,2453.7,66.3,450.5,1789.3,2428,155.7,49.9,11.2
0.117694,436.7,42.2,1785.2,202.2,2447.0,66.0,447.4,1778.8,2426,154.9,49.3,10.5
0.119694,437.3,41.6,1779.4,222.2,2437.3,68.9,444.4,1768.8,2424.2,154.1,48.9,9.2
0.121694,441.1,40.5,1767.9,238.8,2424.1,76.8,441.4,1759.2,2422.6,153.4,48.7,8
0.123694,442.9,40.4,1747.8,234.6,2411.0,81.2,438.5,1750.4,2421.4,152.7,48.8,7
0.125694,440.6,40.4,1732.3,219.3,2407.1,73.7,435.9,1742.3,2420.5,152.1,49,6.9
0.127694,436.6,39.2,1723.4,206.3,2409.3,62.3,433.5,1735.2,2420,151.4,49.3,7.5
0.129694,433.3,37.0,1720.1,201.5,2413.1,54.4,431.5,1729,2419.9,150.9,49.4,8.4
0.131694,431.2,34.9,1722.6,207.3,2417.8,52.3,429.7,1723.8,2420.2,150.3,49.4,9.3
0.133694,430.0,33.4,1731.2,221.7,2422.0,56.9,428.4,1719.5,2420.8,149.8,49.2,9.8
0.135694,429.5,32.8,1739.8,234.7,2421.1,66.9,427.4,1716.3,2421.8,149.3,48.9,9.3
0.137694,431.0,34.4,1740.6,248.6,2411.1,81.9,426.7,1713.9,2423.2,148.9,48.4,8
0.139694,435.0,40.1,1729.4,272.1,2395.4,101.4,426.4,1712.4,2424.8,148.4,48,6.2
0.141694,438.4,50.7,1712.4,300.2,2393.3,118.8,426.5,1711.6,2426.8,148,47.8,4.3
0.143694,435.7,59.5,1699.9,308.2,2422.3,110.6,426.8,1711.5,2428.9,147.6,47.8,3
0.145694,430.4,55.4,1692.8,298.6,2444.5,86.2,427.4,1712,2431.2,147.3,48.1,2.4
0.147694,428.1,44.8,1688.6,289.0,2449.8,69.5,428.2,1713,2433.6,147,48.6,2.6
0.149694,428.4,37.0,1691.6,292.5,2449.1,63.5,429.2,1714.3,2436.2,146.6,48.9,3.2
0.151694,429.3,33.0,1707.1,313.3,2449.8,65.0,430.4,1715.8,2438.7,146.3,49.1,4
0.153694,429.1,30.5,1731.6,339.8,2453.8,69.2,431.7,1717.5,2441.2,146.1,49.2,4.8
0.155694,427.4,28.0,1750.4,352.8,2457.5,68.7,433,1719.3,2443.7,145.8,49.1,5.3
0.157694,425.9,25.1,1755.2,351.6,2458.1,62.5,434.4,1721.2,2446.1,145.6,48.8,5.8
0.159694,426.3,23.3,1744.9,342.0,2456.3,57.4,435.7,1722.9,2448.4,145.4,48.5,6.4
0.161694,428.9,23.6,1724.5,324.9,2453.8,58.0,437.1,1724.6,2450.6,145.2,48.2,6.9
0.163694,432.6,26.1,1700.7,303.4,2450.7,65.9,438.3,1726.1,2452.6,145,47.9,7.5
0.165694,436.3,29.1,1679.4,287.3,2446.4,78.3,439.5,1727.4,2454.4,144.8,47.7,8.1
0.167694,438.5,31.1,1664.6,281.1,2443.0,91.8,440.6,1728.6,2456,144.6,47.7,8.7
0.169694,438.2,33.3,1667.3,296.4,2448.3,99.6,441.6,1729.6,2457.5,144.5,47.8,9.4
0.171694,437.2,37.6,1688.0,350.1,2458.5,96.8,442.5,1730.5,2458.7,144.3,48.1,10.1
0.173694,437.9,43.0,1721.8,461.7,2462.2,90.1,443.2,1731.1,2459.7,144.2,48.3,10.8
0.175694,440.5,46.8,1759.8,619.0,2459.5,86.3,443.8,1731.7,2460.6,144.1,48.5,11.4
0.177694,445.1,49.7,1789.7,792.9,2455.6,85.3,444.3,1732.1,2461.3,143.9,48.5,12.1
0.179694,451.3,53.9,1788.2,882.0,2456.0,87.4,444.7,1732.3,2461.7,143.8,48.5,12.8
0.181694,457.5,58.9,1762.3,849.5,2461.9,91.5,444.9,1732.5,2462,143.7,48.3,13.4
0.183694,461.6,62.2,1736.2,764.4,2469.5,93.7,444.9,1732.5,2462.1,143.7,48.2,13.8
