time,f1,b1,f2,b2,f3,b3,f1p,f2p,f3p,f0,intensity,harmonicity
0.025776,372.8,60.4,2398.2,128.6,3090.2,839.1,375.6,2400.9,2969.6,182.3,56.6,18.6
0.027776,373.9,59.1,2419.8,122.9,3028.6,1001.0,376.2,2402.9,2962.7,183,57,18.7
0.029776,375.6,57.6,2432.1,116.7,2968.8,1149.0,377.2,2406,2951.5,183.8,57.3,18.7
0.031776,377.7,56.4,2435.5,116.9,2912.4,1247.1,378.6,2409.7,2936.4,184.7,57.7,18.6
0.033776,380.3,55.5,2431.5,125.1,2853.0,1269.1,380.3,2413.6,2917.8,185.7,58,18.5
0.035776,383.3,54.9,2417.9,136.1,2808.3,1190.2,382.2,2417.1,2896.5,186.7,58.3,18.2
0.037776,386.3,54.3,2396.3,138.4,2795.4,1081.2,384.3,2419.7,2873.1,187.8,58.6,17.9
0.039776,388.8,53.0,2378.9,126.9,2805.1,992.6,386.6,2420.9,2848.3,188.9,58.9,17.4
0.041776,391.0,51.2,2376.3,114.0,2809.4,881.0,389,2420.1,2823,190.1,59.2,16.9
0.043776,393.7,48.7,2383.6,104.0,2803.5,731.8,391.4,2417,2798,191.3,59.4,16.5
0.045776,396.3,46.5,2392.2,99.8,2792.1,617.6,393.8,2411.4,2773.8,192.6,59.6,16
0.047776,398.6,44.8,2399.5,106.7,2773.0,558.7,396.1,2403.2,2751.2,193.9,59.7,15.4
0.049776,400.1,43.7,2405.3,132.2,2743.2,542.8,398.2,2392.7,2730.6,195.3,59.9,14.8
0.051776,400.7,42.6,2404.9,177.8,2711.8,533.5,400.2,2380,2712.4,196.7,60,14.4
0.053776,401.3,40.8,2385.9,236.0,2700.6,498.0,402.1,2365.6,2696.7,198.2,60.2,14.2
0.055776,402.0,38.6,2352.6,270.0,2721.8,471.0,403.8,2350.2,2683.8,199.7,60.4,14.4
0.057776,402.5,36.2,2330.4,293.4,2742.8,480.2,405.3,2334.3,2673.4,201.2,60.7,14.8
0.059776,403.0,34.1,2331.6,338.4,2730.0,528.2,406.8,2318.6,2665.3,202.7,60.9,15.4
0.061776,403.9,32.5,2349.2,419.1,2672.9,577.6,408.2,2303.7,2659.2,204.3,61.1,15.9
0.063776,406.0,31.5,2354.9,594.3,2590.2,518.4,409.7,2290.3,2654.4,205.9,61.2,16.1
0.065776,408.8,30.9,2281.3,723.2,2586.0,417.2,411.2,2278.7,2650.6,207.5,61.4,15.9
0.067776,412.4,30.5,2228.6,672.2,2604.9,398.3,412.9,2269.4,2647.1,209.1,61.5,15.5
0.069776,416.7,29.8,2225.5,511.3,2629.3,418.8,414.9,2262.4,2643.2,210.7,61.7,14.9
0.071776,420.4,28.3,2236.8,357.0,2654.3,430.3,417.1,2257.9,2638.5,212.3,61.9,14.4
0.073776,423.4,25.9,2246.1,252.2,2665.1,421.0,419.7,2255.7,2632.6,213.9,62.2,14.2
0.075776,425.4,23.4,2252.9,198.3,2650.3,408.3,422.8,2255.4,2625,215.5,62.4,14.1
0.077776,427.6,21.5,2258.0,173.5,2612.1,392.6,426.2,2256.8,2615.6,217.1,62.6,14.3
0.079776,430.6,20.2,2259.6,165.7,2566.1,364.0,430.2,2259.2,2604.3,218.7,62.8,14.5
0.081776,434.6,19.5,2257.3,161.5,2545.8,337.9,434.5,2262.1,2591.5,220.2,62.8,14.7
0.083776,440.1,19.4,2255.4,154.2,2558.7,340.6,439.2,2265.2,2577.4,221.7,62.8,14.8
0.085776,446.0,19.9,2254.8,153.2,2585.1,375.4,444.3,2267.8,2562.6,223.2,62.7,14.9
0.087776,451.5,20.5,2254.1,162.8,2603.0,428.8,449.5,2269.6,2547.8,224.6,62.6,14.9
0.089776,455.8,21.0,2259.2,180.9,2587.7,471.8,454.9,2270.3,2533.7,226,62.6,14.9
0.091776,459.1,21.3,2276.7,197.5,2533.2,451.2,460.2,2269.8,2521.3,227.4,62.6,14.9
0.093776,463.3,21.8,2291.6,208.4,2478.9,357.8,465.3,2268.1,2511.5,228.7,62.6,14.9
0.095776,468.5,22.0,2290.0,210.3,2458.8,270.0,470.2,2265.3,2505.1,230,62.7,15.1
0.097776,473.4,21.5,2284.4,198.6,2461.8,227.2,474.7,2261.7,2503,231.2,62.8,15.3
0.099776,476.8,20.7,2280.0,178.6,2484.6,215.0,478.6,2257.5,2505.8,232.3,62.9,15.6
0.101776,478.6,20.1,2273.5,161.4,2522.0,206.7,481.9,2253.2,2513.9,233.4,63,15.8
0.103776,480.0,20.1,2260.9,151.8,2564.7,183.9,484.5,2249.2,2527.6,234.4,63,15.8
0.105776,481.9,21.0,2244.9,149.7,2598.5,154.1,486.3,2245.8,2546.9,235.3,63,15.6
0.107776,484.7,22.5,2230.3,151.7,2622.1,129.6,487.4,2243.3,2571.5,236.2,62.9,15.3
0.109776,488.0,24.3,2223.5,155.5,2638.1,120.4,487.8,2242,2600.7,237.1,62.7,14.8
0.111776,490.4,25.4,2225.8,158.0,2650.8,130.5,487.5,2242.1,2633.9,237.8,62.6,14.5
0.113776,491.0,25.7,2230.2,156.6,2667.5,155.9,486.6,2243.5,2669.9,238.5,62.4,14.3
0.115776,490.1,25.2,2229.5,151.3,2686.5,186.2,485.2,2246,2707.5,239.1,62.2,14.6
0.117776,488.8,24.3,2225.0,141.3,2702.0,217.2,483.5,2249.6,2745.3,239.7,61.9,15.1
0.119776,487.6,24.0,2225.4,126.2,2707.7,255.7,481.7,2253.8,2781.9,240.2,61.5,15.7
0.121776,486.7,26.0,2236.5,111.7,2708.9,305.8,479.8,2258.4,2815.9,240.7,60.9,16
0.123776,485.4,31.3,2254.5,98.7,2731.2,372.0,478,2262.8,2845.8,241.1,60.2,15.9
0.125776,482.8,39.5,2271.5,89.8,2791.1,444.7,476.4,2266.7,2870.5,241.4,59.3,15.2
0.127776,476.9,49.1,2286.9,88.3,2882.8,517.9,475.2,2269.8,2888.9,241.7,58.3,14
0.129776,465.6,55.3,2302.7,98.9,2998.4,600.6,474.5,2271.8,2900.3,242,57.1,12.7
0.131776,451.8,51.7,2311.2,122.4,3128.0,707.0,474.2,2272.5,2904.1,242.2,55.9,11.3
