time,f1,b1,f2,b2,f3,b3,f1p,f2p,f3p,f0,intensity,harmonicity
0.025263,409.8,65.3,2581.8,106.6,3018.8,119.1,424.1,2626.7,3015.7,213,66,15.1
0.027263,415.2,58.5,2613.2,100.9,3031.8,89.9,424,2632,3022.8,212.6,66.8,15.8
0.029263,420.4,54.6,2642.1,107.4,3042.1,80.5,423.7,2640.7,3034.5,212.2,67.5,16.7
0.031263,424.8,52.9,2663.2,120.3,3050.8,84.2,423.4,2652.3,3050.4,211.7,68.1,17.5
0.033263,427.6,51.5,2676.8,133.4,3058.9,96.9,422.9,2666.3,3070.1,211.2,68.6,18
0.035263,428.4,49.2,2692.9,141.5,3071.1,120.4,422.4,2682.2,3093.1,210.6,69.1,18.2
0.037263,427.9,46.3,2715.3,138.7,3094.5,154.5,421.9,2699.3,3118.9,210,69.5,17.9
0.039263,427.1,43.9,2736.9,122.6,3134.9,186.7,421.2,2716.9,3146.8,209.4,69.9,17.4
0.041263,426.4,43.0,2749.5,103.3,3181.7,196.9,420.5,2734.3,3176.2,208.7,70.2,16.9
0.043263,425.4,42.7,2755.8,91.4,3221.1,191.7,419.7,2751,3206.5,208,70.4,16.5
0.045263,423.3,41.3,2763.9,88.4,3256.0,185.6,418.9,2766.4,3237.1,207.2,70.7,16.6
0.047263,420.4,38.1,2777.5,92.3,3290.1,182.8,418,2779.9,3267.2,206.3,70.9,17.1
0.049263,417.6,34.6,2794.8,99.3,3322.6,179.8,417,2791.4,3296.6,205.5,71.1,17.8
0.051263,415.4,31.9,2807.6,105.7,3345.2,176.5,416,2800.6,3324.6,204.5,71.4,18.4
0.053263,413.7,30.2,2810.2,108.5,3355.9,175.0,414.8,2807.4,3351,203.6,71.6,18.8
0.055263,411.6,29.3,2807.1,106.2,3363.5,175.3,413.7,2812,3375.4,202.6,71.8,18.7
0.057263,409.1,29.2,2805.0,101.5,3375.8,181.2,412.5,2814.5,3397.8,201.5,71.9,18.3
0.059263,406.6,29.4,2804.6,96.7,3393.8,197.3,411.2,2815.3,3417.8,200.4,72,17.5
0.061263,404.5,29.5,2804.6,92.8,3416.0,223.8,410,2814.7,3435.6,199.3,72.1,16.7
0.063263,403.0,29.4,2803.7,91.2,3438.3,258.8,408.7,2813.2,3451.2,198.1,72.2,15.9
0.065263,402.2,30.0,2801.2,92.7,3454.6,301.1,407.6,2811.2,3464.7,196.9,72.2,15.2
0.067263,402.1,31.5,2798.8,97.2,3463.8,342.4,406.5,2809.2,3476.2,195.6,72.1,14.4
0.069263,402.5,33.9,2799.4,104.1,3475.6,373.7,405.7,2807.6,3485.8,194.4,72,13.6
0.071263,403.8,37.5,2804.5,112.2,3496.2,380.0,405.1,2806.7,3493.8,193,71.8,12.8
0.073263,406.0,42.6,2812.0,120.4,3517.7,355.2,404.9,2806.8,3500.4,191.7,71.6,12.3
0.075263,409.2,48.7,2818.9,126.8,3530.6,314.4,405,2808.2,3505.7,190.4,71.4,12.2
0.077263,413.1,54.0,2823.1,128.0,3535.1,278.2,405.6,2810.8,3510,189,71.2,12.5
0.079263,416.4,57.0,2825.9,124.0,3537.0,254.9,406.8,2814.7,3513.2,187.6,71.1,13
0.081263,417.6,56.6,2828.8,120.0,3537.8,254.2,408.5,2819.7,3515.7,186.2,71.1,13.5
0.083263,416.9,53.9,2832.9,122.8,3534.9,285.0,410.8,2825.7,3517.4,184.7,71.1,13.8
0.085263,415.9,50.6,2839.4,136.3,3523.4,349.1,413.7,2832.4,3518.5,183.3,71.2,13.5
0.087263,416.4,48.9,2847.6,155.6,3503.6,413.4,417.3,2839.5,3519,181.9,71.2,12.7
0.089263,418.2,49.8,2855.9,171.9,3485.1,443.3,421.3,2846.6,3519,180.4,71.2,11.7
0.091263,421.2,53.7,2859.9,174.7,3476.3,430.1,425.9,2853.6,3518.4,179,71.1,10.5
0.093263,426.0,60.1,2857.4,160.4,3478.7,387.1,430.8,2860.1,3517.4,177.5,70.9,9.6
0.095263,432.6,67.4,2852.5,136.5,3491.8,337.2,436.1,2865.9,3515.9,176.1,70.7,8.9
0.097263,438.4,72.8,2851.7,115.3,3509.3,303.5,441.4,2870.8,3513.9,174.6,70.4,8.5
0.099263,442.4,75.9,2856.2,98.9,3525.1,286.9,446.8,2874.7,3511.6,173.2,70.2,8.2
0.101263,446.5,78.1,2862.8,86.2,3536.2,279.7,451.9,2877.6,3509,171.8,69.9,8
0.103263,453.6,78.9,2868.7,76.7,3540.6,275.6,456.7,2879.5,3506.1,170.4,69.7,7.8
0.105263,463.9,75.3,2873.9,71.0,3536.8,274.9,461.1,2880.6,3503.1,169.1,69.5,7.7
0.107263,472.2,68.4,2879.5,70.9,3525.0,284.4,464.7,2881,3500,167.7,69.4,7.7
0.109263,474.7,62.8,2886.7,76.6,3506.6,308.2,467.6,2881,3496.9,166.4,69.4,7.8
0.111263,472.0,60.4,2893.6,87.2,3486.7,344.0,469.6,2880.8,3493.9,165.1,69.4,7.8
0.113263,467.2,59.8,2897.0,101.0,3470.6,382.2,470.7,2880.7,3491.1,163.9,69.4,7.9
0.115263,463.4,59.1,2895.4,112.2,3461.4,403.6,470.7,2880.7,3488.7,162.7,69.4,8
0.117263,462.6,58.7,2891.0,112.0,3462.7,393.5,469.8,2881.2,3486.6,161.5,69.2,8
0.119263,464.7,59.9,2887.2,102.1,3470.3,364.9,468,2882.3,3484.9,160.4,69,8.1
0.121263,468.6,62.7,2885.3,90.4,3478.6,336.3,465.4,2884.1,3483.6,159.3,68.8,8.1
0.123263,470.8,65.8,2885.2,82.1,3485.3,317.3,462,2886.5,3482.8,158.3,68.5,8.2
0.125263,468.6,68.1,2885.7,78.4,3490.5,307.0,458.1,2889.6,3482.3,157.3,68.4,8.4
0.127263,462.2,68.2,2886.4,78.1,3494.3,301.7,453.9,2893.1,3482.2,156.4,68.3,8.6
0.129263,453.5,65.4,2889.2,77.0,3496.3,298.0,449.5,2897,3482.4,155.5,68.3,8.9
0.131263,443.8,60.5,2896.0,72.3,3495.5,296.4,445.1,2901.1,3482.8,154.7,68.3,9.2
0.133263,434.5,55.4,2903.5,66.1,3491.6,295.0,441,2905.1,3483.4,153.9,68.3,9.5
0.135263,427.8,51.7,2907.8,61.8,3485.5,290.9,437.3,2908.7,3484,153.2,68.3,9.7
0.137263,426.2,50.4,2909.2,60.6,3480.1,286.5,434.2,2911.8,3484.6,152.5,68.3,9.9
0.139263,429.3,50.5,2910.9,62.4,3476.6,287.2,431.9,2914.2,3485,151.9,68.1,10.2
0.141263,433.8,50.7,2916.1,67.1,3476.2,296.7,430.5,2915.7,3485.3,151.3,67.8,10.4
0.143263,435.4,50.7,2926.2,72.5,3483.7,309.5,430,2916.2,3485.4,150.8,67.3,10.4
