time,f1,b1,f2,b2,f3,b3,f1p,f2p,f3p,f0,intensity,harmonicity
0.025515,430.3,27.5,1880.8,204.5,2501.7,54.9,437.6,1912.3,2507.2,137.5,45.2,9
0.027515,430.9,30.6,1891.2,202.7,2507.7,53.8,437,1913,2507.7,137,45.1,9.9
0.029515,430.4,33.8,1887.4,207.7,2509.7,54.6,436,1914.2,2508.4,136.5,45,11
0.031515,428.8,37.0,1880.6,214.2,2510.4,58.3,434.6,1915.8,2509.3,136,44.9,11.8
0.033515,427.6,38.7,1881.1,218.8,2510.5,62.1,432.9,1917.9,2510.5,135.4,44.8,12
0.035515,427.1,38.2,1890.6,223.0,2510.0,62.5,431,1920.5,2511.9,134.8,44.7,11.3
0.037515,427.5,37.5,1913.2,233.5,2509.6,60.5,428.9,1923.5,2513.4,134.2,44.5,9.9
0.039515,429.7,38.3,1953.1,252.9,2510.3,60.1,426.8,1926.9,2515.1,133.6,44.3,8.3
0.041515,434.1,38.7,1998.0,269.0,2512.7,60.9,424.7,1930.7,2516.8,133,44.1,6.8
0.043515,437.4,36.7,2016.4,270.2,2517.0,59.9,422.6,1934.9,2518.6,132.4,44,5.8
0.045515,436.1,35.8,2009.1,261.6,2524.2,58.2,420.8,1939.5,2520.5,131.7,43.9,5.5
0.047515,431.3,39.2,2001.9,254.1,2533.3,57.7,419.3,1944.4,2522.3,131.1,43.8,5.5
0.049515,425.8,46.3,2002.8,255.8,2537.6,56.5,418.1,1949.6,2524,130.5,43.8,5.7
0.051515,421.4,54.1,1995.4,263.0,2535.4,52.8,417.4,1955.1,2525.6,129.8,43.8,6
0.053515,418.3,59.0,1966.8,261.0,2529.9,48.1,417.2,1960.8,2527.2,129.2,43.9,6.3
0.055515,415.6,58.7,1930.8,236.9,2524.8,44.6,417.4,1966.6,2528.6,128.6,44,6.5
0.057515,414.3,53.7,1912.4,207.2,2522.5,43.1,418.3,1972.6,2529.9,128,44.1,6.8
0.059515,415.0,48.1,1910.2,188.0,2523.1,42.6,419.7,1978.7,2531,127.4,44.2,7.1
0.061515,416.5,45.5,1921.8,183.0,2525.7,45.4,421.6,1984.8,2532,126.8,44.2,7.4
0.063515,417.5,47.4,1948.0,193.8,2529.1,52.9,424.1,1990.8,2533,126.3,44.1,7.7
0.065515,418.9,49.0,1980.5,211.7,2531.9,60.6,427.1,1996.8,2533.8,125.7,43.9,7.8
0.067515,422.6,45.1,2003.1,229.9,2533.7,62.7,430.6,2002.6,2534.6,125.2,43.7,7.9
0.069515,428.3,39.7,2013.5,254.5,2536.4,61.7,434.4,2008.2,2535.3,124.7,43.5,8
0.071515,434.4,37.8,2021.0,293.8,2540.7,61.6,438.5,2013.6,2536,124.2,43.2,8.1
0.073515,439.4,38.9,2029.0,333.8,2543.2,61.3,442.8,2018.7,2536.8,123.8,43,8.2
0.075515,443.8,38.7,2028.0,358.8,2542.6,57.7,447.2,2023.5,2537.6,123.3,42.8,8.3
0.077515,449.7,36.3,2020.0,376.9,2542.2,52.5,451.6,2027.9,2538.6,122.9,42.5,8.4
0.079515,457.6,34.6,2026.9,393.9,2544.3,50.3,456,2032,2539.6,122.5,42.2,8.4
0.081515,466.1,34.0,2057.4,395.9,2547.3,51.3,460.2,2035.6,2540.8,122.1,41.9,8.5
0.083515,472.3,32.9,2079.8,361.8,2548.1,51.3,464.1,2038.9,2542.2,121.8,41.6,8.5
0.085515,476.0,31.2,2073.5,308.1,2545.5,49.6,467.7,2041.9,2543.8,121.4,41.3,8.4
0.087515,479.1,30.5,2057.4,264.1,2540.0,51.2,470.9,2044.4,2545.6,121.1,41.3,8.1
0.089515,480.7,31.7,2049.7,250.1,2535.3,56.0,473.6,2046.7,2547.5,120.8,41.3,7.9
0.091515,479.4,33.0,2044.3,254.6,2534.5,59.5,475.9,2048.6,2549.7,120.6,41.4,7.9
0.093515,477.4,33.3,2035.7,265.4,2538.1,61.3,477.6,2050.2,2552,120.3,41.5,8.1
0.095515,477.5,33.3,2031.9,279.2,2545.2,65.2,478.8,2051.7,2554.4,120.1,41.6,8.7
0.097515,478.7,33.8,2044.4,300.0,2552.7,70.7,479.4,2053,2557,119.9,41.6,9.7
0.099515,477.8,34.0,2064.1,325.7,2556.0,72.7,479.6,2054.2,2559.6,119.7,41.6,10.8
0.101515,474.6,33.5,2070.5,351.5,2557.3,70.3,479.3,2055.3,2562.2,119.5,41.5,11.9
0.103515,472.8,33.7,2054.2,358.8,2562.9,67.1,478.6,2056.4,2564.8,119.4,41.4,12.7
0.105515,473.4,35.4,2035.7,336.9,2573.5,65.4,477.6,2057.6,2567.4,119.2,41.3,13.3
0.107515,473.2,36.7,2029.0,305.7,2581.7,62.8,476.2,2058.9,2569.8,119.1,41.3,13.8
0.109515,470.5,35.6,2033.4,280.7,2584.0,60.5,474.7,2060.3,2572,119,41.2,14.2
0.111515,468.5,33.5,2054.4,257.3,2585.0,62.7,473,2062,2573.9,119,41.3,14.5
0.113515,469.1,32.1,2090.5,232.6,2588.5,69.6,471.3,2063.8,2575.6,118.9,41.4,14.9
0.115515,469.7,30.7,2114.8,211.3,2591.1,72.4,469.7,2065.9,2577,118.9,41.6,15.2
0.117515,468.5,27.7,2112.4,197.0,2588.6,67.9,468.1,2068.2,2578.1,118.8,41.9,15.5
0.119515,468.1,23.8,2086.4,183.5,2582.8,60.1,466.7,2070.8,2578.8,118.8,42.2,15.7
0.121515,470.4,20.4,2057.2,165.2,2578.0,53.3,465.5,2073.5,2579.1,118.9,42.5,15.9
0.123515,472.7,18.5,2046.2,154.8,2575.0,49.2,464.6,2076.4,2579.1,118.9,42.8,16.1
0.125515,471.7,17.3,2048.1,159.0,2571.6,46.7,464.1,2079.5,2578.7,118.9,43.1,16.3
0.127515,468.5,16.4,2057.4,177.4,2568.3,47.2,463.8,2082.7,2577.9,119,43.4,16.4
0.129515,466.6,16.3,2075.2,203.4,2568.0,53.7,464,2085.8,2576.9,119.1,43.6,16.4
0.131515,466.2,17.0,2095.3,221.0,2571.1,63.9,464.4,2088.9,2575.6,119.2,43.9,16.4
0.133515,465.2,17.3,2103.7,228.0,2572.9,69.6,465.2,2091.9,2574,119.3,44.1,16.4
0.135515,463.4,17.2,2103.0,241.0,2570.7,71.6,466.3,2094.7,2572.3,119.5,44.2,16.3
0.137515,463.3,17.7,2101.6,264.5,2565.6,75.1,467.6,2097.2,2570.5,119.6,44.3,16.1
0.139515,466.0,18.3,2104.8,283.2,2561.2,79.7,469.2,2099.4,2568.7,119.8,44.3,15.9
0.141515,469.1,17.8,2107.2,286.3,2559.6,79.6,470.9,2101.1,2566.9,120,44.3,15.6
0.143515,470.2,16.0,2102.6,285.9,2559.4,74.8,472.7,2102.3,2565.2,120.2,44.4,15.3
0.145515,471.3,14.5,2098.2,295.9,2559.4,73.0,474.5,2102.9,2563.6,120.4,44.4,14.7
0.147515,474.3,14.0,2105.8,315.2,2559.9,77.0,476.3,2102.9,2562.2,120.6,44.5,13.9
0.149515,477.0,14.1,2116.8,327.7,2560.6,79.4,478,2102.3,2561.1,120.9,44.5,13.1
0.151515,477.7,13.9,2114.1,324.6,2561.4,74.8,479.5,2101,2560.3,121.1,44.5,12.5
0.153515,477.8,13.7,2098.3,295.8,2563.1,67.2,480.9,2099,2559.8,121.4,44.5,12.2
0.155515,479.5,14.0,2088.3,253.4,2565.1,62.1,482,2096.3,2559.7,121.7,44.4,12.4
0.157515,481.6,14.7,2088.3,222.9,2566.5,59.2,482.8,2093.1,2559.9,121.9,44.3,13
0.159515,481.8,15.3,2087.1,211.3,2566.9,57.2,483.4,2089.2,2560.5,122.2,44.2,13.7
0.161515,481.4,16.2,2076.9,204.8,2568.1,56.6,483.6,2084.8,2561.5,122.5,44,14.3
0.163515,483.4,18.4,2062.6,193.2,2571.1,57.2,483.6,2079.9,2562.8,122.8,43.8,14.5
0.165515,486.4,21.2,2053.6,182.4,2573.7,56.9,483.3,2074.6,2564.3,123.1,43.6,14.3
0.167515,487.3,23.3,2049.4,180.1,2573.8,55.0,482.7,2069.1,2566.1,123.4,43.3,13.8
0.169515,485.9,24.2,2050.5,188.4,2572.3,55.1,481.9,2063.4,2568.1,123.7,43,13.1
0.171515,485.5,26.2,2061.9,205.9,2570.8,60.1,480.9,2057.7,2570.3,124,42.7,12.3
0.173515,487.1,30.1,2079.9,221.5,2570.5,66.5,479.8,2052,2572.5,124.4,42.3,11.6
0.175515,487.8,33.4,2089.1,229.3,2570.8,67.2,478.6,2046.6,2574.7,124.7,42,10.9
0.177515,485.7,35.0,2082.9,236.5,2570.6,63.7,477.4,2041.4,2576.9,125,41.8,10.2
0.179515,482.3,35.8,2062.9,242.8,2570.4,61.5,476.2,2036.7,2578.9,125.2,41.7,9.5
0.181515,479.1,36.1,2038.2,242.8,2570.9,61.7,475.1,2032.5,2580.7,125.5,41.9,8.8
0.183515,475.0,34.9,2019.1,244.3,2573.1,63.5,474.1,2028.9,2582.3,125.8,42.2,8.3
0.185515,470.0,33.7,2008.3,263.2,2578.5,67.8,473.3,2026.1,2583.6,126.1,42.5,7.9
0.187515,464.8,34.2,2006.9,308.0,2587.1,75.2,472.7,2024,2584.5,126.3,42.9,7.7
0.189515,461.4,35.2,2009.0,360.6,2592.4,79.2,472.3,2022.7,2585.1,126.5,43.2,7.6
0.191515,459.2,36.1,1999.5,401.6,2590.2,76.0,472.1,2022.3,2585.3,126.8,43.3,7.4
