time,f1,b1,f2,b2,f3,b3,f1p,f2p,f3p,f0,intensity,harmonicity
0.025041,310.5,93.0,2754.6,89.4,3425.7,216.0,312.1,2759.6,3431.9,199.5,63,9.6
0.027041,314.4,89.0,2761.5,84.5,3427.4,220.7,312.8,2758.2,3431.5,199.1,63.8,9.7
0.029041,317.5,85.0,2765.8,83.7,3427.8,231.5,314,2755.8,3430.8,198.8,64.4,10.2
0.031041,320.1,81.6,2764.1,88.7,3424.3,254.0,315.5,2752.8,3429.7,198.4,64.8,10.8
0.033041,321.8,78.5,2755.3,97.5,3419.7,284.1,317.4,2749.3,3428.3,198.1,65.1,11.6
0.035041,322.8,75.3,2741.9,102.6,3420.1,312.1,319.4,2745.6,3426.5,197.7,65.3,12.6
0.037041,322.9,73.7,2731.6,98.0,3424.4,322.2,321.5,2741.8,3424.3,197.4,65.6,13.9
0.039041,322.6,74.6,2727.5,87.7,3426.4,310.6,323.6,2738.4,3421.5,197,65.8,15.8
0.041041,322.4,77.4,2728.3,77.5,3427.1,286.3,325.7,2735.6,3418.4,196.6,66,18.3
0.043041,322.7,81.3,2730.9,69.7,3427.2,260.0,327.5,2733.7,3414.8,196.2,66.1,20.8
0.045041,323.4,85.9,2733.8,63.4,3426.2,236.3,329.1,2732.7,3410.9,195.8,66.3,22.9
0.047041,324.1,90.0,2736.0,59.3,3423.1,222.5,330.4,2732.9,3406.7,195.4,66.3,24.2
0.049041,324.6,92.8,2737.9,58.0,3417.0,219.6,331.3,2734.3,3402.5,195,66.4,24.4
0.051041,325.6,94.0,2739.6,60.3,3407.1,225.5,331.9,2737,3398.5,194.6,66.3,23.8
0.053041,327.4,94.0,2741.0,65.4,3395.6,234.8,332.2,2740.8,3394.7,194.2,66.2,22.7
0.055041,330.2,93.3,2742.8,72.5,3385.3,246.6,332.3,2745.7,3391.5,193.8,66.1,21.8
0.057041,333.2,92.2,2746.2,79.9,3379.2,262.9,332.2,2751.4,3389.2,193.4,66,21.4
0.059041,335.8,91.0,2752.1,87.2,3376.6,286.9,331.9,2757.6,3387.8,193,65.8,21.7
0.061041,337.6,89.8,2760.5,94.0,3375.7,318.2,331.7,2764.1,3387.6,192.5,65.7,22.5
0.063041,338.6,89.0,2769.7,99.2,3374.9,350.9,331.5,2770.6,3388.7,192.1,65.5,23.5
0.065041,339.1,88.7,2779.2,101.9,3373.9,383.5,331.5,2776.8,3391.2,191.6,65.4,24.2
0.067041,339.2,88.9,2787.6,100.4,3373.9,412.3,331.7,2782.3,3395.2,191.2,65.2,24.3
0.069041,339.0,89.3,2793.7,94.8,3378.3,438.1,332.3,2786.8,3400.6,190.7,65.1,23.7
0.071041,338.2,89.6,2796.8,86.5,3393.7,459.3,333.3,2790.2,3407.2,190.2,64.9,22.6
0.073041,337.0,89.8,2797.2,77.5,3422.4,469.1,334.6,2792.3,3414.9,189.8,64.8,21.2
0.075041,336.0,89.7,2796.8,67.8,3457.2,462.3,336.4,2792.9,3423.3,189.3,64.6,19.9
0.077041,335.8,88.9,2796.6,58.9,3478.2,445.6,338.5,2792.1,3432.2,188.8,64.4,18.7
0.079041,336.4,87.2,2795.6,52.1,3480.4,433.3,340.9,2789.9,3441.1,188.3,64.2,17.8
0.081041,337.7,84.4,2791.5,48.8,3469.3,429.7,343.5,2786.3,3449.7,187.8,64,16.8
0.083041,339.2,80.9,2783.2,48.7,3454.0,426.2,346.2,2781.6,3457.5,187.4,63.7,16
0.085041,341.2,76.9,2771.5,49.9,3443.7,410.1,349,2775.9,3464.1,186.9,63.5,15.5
0.087041,344.2,73.3,2760.1,51.6,3444.7,384.0,351.7,2769.6,3469.1,186.4,63.3,15.3
0.089041,348.4,70.6,2751.0,54.7,3452.9,356.7,354.1,2762.9,3472.2,185.9,63.1,15.8
0.091041,353.9,69.6,2743.8,60.4,3462.4,334.1,356.3,2756.2,3473.2,185.4,63,16.9
0.093041,359.1,70.1,2737.5,68.6,3468.6,323.6,358.1,2749.6,3472,185,62.8,18.1
0.095041,363.4,70.9,2731.0,78.1,3470.0,327.4,359.4,2743.5,3468.6,184.5,62.8,19.3
0.097041,365.7,70.9,2726.8,84.3,3467.0,339.7,360.2,2738.1,3463,184.1,62.7,20
0.099041,366.1,70.9,2728.0,84.0,3461.0,352.0,360.5,2733.6,3455.5,183.6,62.6,20.2
0.101041,365.0,71.9,2734.6,78.4,3451.7,360.8,360.2,2730,3446.4,183.2,62.5,20
0.103041,362.8,74.0,2741.4,73.4,3439.1,365.4,359.6,2727.5,3436.2,182.8,62.5,19.7
0.105041,359.3,77.1,2745.3,72.7,3422.2,365.9,358.5,2726.1,3425.3,182.4,62.4,19.5
0.107041,355.5,80.8,2745.3,76.7,3404.9,359.3,357.2,2725.6,3414.3,182,62.3,19.5
0.109041,352.4,86.2,2742.6,82.0,3394.2,339.6,355.7,2726,3403.8,181.5,62.2,19.7
0.111041,350.8,95.0,2739.0,84.7,3394.0,308.8,354.2,2727.1,3394.5,181.2,62.1,20.2
0.113041,351.1,105.5,2735.7,84.4,3396.6,285.1,352.7,2728.8,3386.8,180.8,62,20.8
0.115041,353.0,115.6,2732.0,83.9,3394.0,279.5,351.5,2730.8,3381.4,180.4,61.9,21.3
0.117041,355.8,123.5,2728.2,84.2,3384.3,289.6,350.7,2732.8,3378.5,180,61.8,21.7
0.119041,358.6,129.7,2724.9,84.6,3374.1,303.7,350.2,2734.8,3378.6,179.6,61.7,22.1
0.121041,359.9,135.4,2723.2,82.9,3377.0,306.3,350.3,2736.5,3381.7,179.3,61.6,22.5
0.123041,359.2,141.5,2723.3,79.0,3391.7,291.4,350.9,2737.8,3388,178.9,61.5,22.9
0.125041,356.3,147.5,2724.9,75.4,3404.7,272.3,352.1,2738.6,3397.2,178.5,61.3,22.9
0.127041,352.1,150.9,2727.8,74.3,3410.0,264.5,353.8,2738.8,3409,178.2,61.1,22.5
0.129041,347.8,151.1,2731.7,76.1,3413.8,269.7,356,2738.5,3423.2,177.8,60.9,21.5
0.131041,344.9,149.4,2736.6,79.3,3424.6,285.3,358.5,2737.5,3439,177.5,60.6,20
0.133041,344.5,149.0,2742.0,81.9,3445.8,303.1,361.3,2736.1,3456,177.2,60.2,18.3
0.135041,347.3,150.1,2745.8,83.3,3474.4,314.7,364.3,2734.4,3473.3,176.8,59.8,16.5
0.137041,353.5,147.5,2743.8,82.9,3500.4,319.6,367.3,2732.4,3490.3,176.5,59.3,15
0.139041,362.5,138.2,2735.5,78.5,3521.9,325.1,370.1,2730.3,3506.2,176.2,58.7,13.7
0.141041,373.0,124.7,2725.6,69.0,3538.7,332.1,372.7,2728.4,3520.3,175.9,58,12.6
0.143041,381.4,110.4,2720.6,60.3,3546.0,337.0,374.8,2726.7,3532,175.6,57.2,11.5
0.145041,387.3,93.5,2721.6,58.5,3542.2,342.3,376.4,2725.4,3540.7,175.3,56.4,10.3
0.147041,391.3,77.4,2726.4,65.4,3531.7,351.8,377.4,2724.6,3546.1,175,55.4,9
0.149041,393.3,66.4,2732.1,79.5,3523.0,373.7,377.8,2724.3,3548,174.8,54.3,7.2
