time,f1,b1,f2,b2,f3,b3,f1p,f2p,f3p,f0,intensity,harmonicity
0.025454,425.6,309.3,2125.4,84.2,2817.6,178.2,412.4,2127.6,2831.2,211.6,82.1,10.8
0.027454,416.2,314.3,2117.8,71.1,2809.4,150.0,412.2,2130.8,2835.8,212.3,82,10.5
0.029454,406.7,303.6,2119.6,61.8,2814.4,136.3,411.8,2136.1,2843.3,213.1,82.1,10.1
0.031454,402.3,273.3,2130.9,57.0,2831.1,137.3,411.4,2143.2,2853.3,213.8,82.3,9.6
0.033454,403.4,232.1,2149.3,55.9,2855.8,148.8,411,2151.8,2865.6,214.6,82.7,9.3
0.035454,406.8,194.2,2171.0,57.1,2884.4,165.8,410.6,2161.7,2879.7,215.4,83.1,9.3
0.037454,410.0,168.3,2191.7,59.0,2917.0,186.4,410.4,2172.4,2895,216.3,83.5,9.7
0.039454,411.5,157.5,2204.9,59.7,2950.5,207.4,410.4,2183.6,2911,217.2,83.9,10.3
0.041454,411.6,154.6,2210.9,58.4,2979.9,225.3,410.8,2194.8,2927.2,218,84.2,11.1
0.043454,411.8,149.9,2213.4,55.7,2997.0,234.6,411.6,2205.6,2942.9,218.9,84.4,11.9
0.045454,413.6,139.3,2216.7,53.8,2998.4,232.6,412.8,2215.5,2957.7,219.8,84.6,12.6
0.047454,416.7,126.9,2222.8,55.2,2987.9,222.1,414.6,2224.4,2971,220.7,84.7,13.1
0.049454,419.4,119.5,2231.3,61.9,2974.1,213.4,416.9,2231.7,2982.3,221.6,84.8,13.6
0.051454,421.8,117.8,2240.2,73.8,2962.8,214.0,419.7,2237.3,2991.5,222.5,84.9,14
0.053454,425.4,119.7,2245.1,87.3,2958.1,224.6,422.9,2241,2998.1,223.4,85,14.4
0.055454,430.5,121.9,2242.9,96.7,2961.9,240.2,426.6,2242.7,3002.1,224.2,85.1,14.7
0.057454,435.9,123.1,2234.4,99.7,2973.1,255.4,430.6,2242.2,3003.4,225,85.3,15
0.059454,439.7,125.0,2224.0,99.5,2984.4,267.0,434.8,2239.8,3002,225.8,85.4,15.2
0.061454,441.7,128.6,2214.8,100.5,2988.9,276.1,439.1,2235.4,2998.1,226.5,85.5,15.4
0.063454,442.5,131.5,2207.8,103.6,2983.7,282.4,443.2,2229.4,2991.9,227.2,85.5,15.6
0.065454,443.4,129.8,2202.8,106.8,2972.0,284.2,447.1,2221.8,2983.8,227.9,85.5,15.7
0.067454,444.9,123.3,2200.1,107.5,2959.1,281.4,450.5,2213,2974,228.4,85.5,15.8
0.069454,446.1,116.9,2200.2,105.6,2951.2,278.0,453.3,2203.4,2963.1,229,85.4,15.9
0.071454,446.7,115.1,2201.3,102.0,2950.9,278.9,455.3,2193.2,2951.4,229.4,85.2,15.9
0.073454,446.3,119.7,2199.8,95.7,2956.4,285.1,456.3,2182.8,2939.4,229.9,84.9,15.9
0.075454,445.4,127.6,2193.0,86.2,2960.8,289.4,456.2,2172.6,2927.4,230.2,84.6,16
0.077454,445.3,132.9,2182.6,74.9,2956.1,278.7,454.9,2162.8,2915.9,230.5,84.3,16.3
0.079454,446.7,129.5,2172.2,65.0,2939.5,246.6,452.4,2153.8,2905.2,230.7,83.9,16.8
0.081454,448.9,117.7,2163.3,56.8,2917.1,204.4,448.5,2145.8,2895.6,230.9,83.6,17.2
0.083454,450.0,102.3,2156.0,50.8,2897.6,168.7,443.4,2138.9,2887.2,231,83.4,17.4
0.085454,448.6,88.7,2149.6,47.8,2884.4,146.8,437,2133.3,2880.2,231,83.2,17.3
0.087454,444.6,78.7,2143.2,49.0,2875.8,137.2,429.4,2129.2,2874.6,231,83,16.7
0.089454,438.7,72.2,2135.8,55.0,2869.4,136.2,420.7,2126.4,2870.4,230.9,82.8,15.7
0.091454,431.3,68.2,2126.1,67.3,2861.9,139.3,411.1,2124.9,2867.5,230.8,82.6,14.6
0.093454,421.9,67.2,2111.9,90.4,2853.0,145.0,400.8,2124.7,2865.6,230.7,82.3,13.5
0.095454,409.1,72.7,2090.2,135.2,2845.7,158.1,390,2125.7,2864.7,230.5,81.9,12.6
0.097454,392.2,88.5,2067.1,205.6,2846.6,188.1,378.9,2127.5,2864.4,230.3,81.5,11.9
0.099454,370.0,113.9,2059.6,285.6,2858.5,247.1,367.7,2130.1,2864.5,230.1,81,11.3
0.101454,343.2,137.9,2076.9,344.1,2874.8,321.1,356.8,2133.3,2864.7,229.9,80.4,10.8
0.103454,315.5,146.1,2108.9,384.8,2877.9,358.0,346.2,2136.8,2864.6,229.7,79.7,10.4
0.105454,293.8,134.7,2148.3,428.2,2857.1,342.3,336.4,2140.4,2864.1,229.4,78.9,10.3
0.107454,282.6,115.2,2190.7,473.6,2821.2,318.3,327.4,2143.9,2862.9,229.2,78,10.4
0.109454,281.5,104.3,2221.3,486.5,2789.8,324.0,319.4,2147.2,2860.9,229,76.9,10.7
0.111454,286.1,104.2,2225.7,413.8,2788.7,356.3,312.7,2150.1,2857.9,228.8,75.7,11.1
0.113454,295.0,109.2,2200.8,289.1,2828.0,376.0,307.3,2152.6,2853.9,228.7,74.4,11.6
0.115454,310.6,109.5,2172.5,197.0,2875.7,371.3,303.4,2154.5,2848.8,228.5,73,12.1
0.117454,330.6,98.1,2153.9,149.7,2903.5,351.0,300.9,2155.9,2842.8,228.4,71.6,12.8
0.119454,343.5,84.0,2145.5,134.4,2902.6,322.4,300,2156.8,2836,228.4,70.4,13.7
0.121454,345.8,75.5,2143.3,135.2,2883.3,300.5,300.5,2157.2,2828.5,228.3,69.3,14.6
0.123454,342.1,71.1,2144.2,138.4,2851.1,294.9,302.5,2157.2,2820.5,228.3,68.5,15.2
0.125454,339.5,67.9,2146.3,135.8,2813.5,301.2,305.8,2156.9,2812.3,228.4,67.8,15.4
0.127454,339.2,66.5,2148.3,130.1,2788.7,296.8,310.4,2156.4,2804.1,228.4,67.3,18.5
0.129454,335.9,69.9,2146.5,124.8,2792.3,253.2,316.1,2155.8,2796.1,228.5,66.8,24.4
0.131454,324.9,79.4,2137.7,120.9,2805.7,184.9,322.7,2155.4,2788.5,228.6,66.1,28.4
0.133454,306.6,93.8,2125.0,115.7,2811.0,127.9,330,2155.1,2781.7,228.7,65.4,25.8
0.135454,287.9,108.5,2119.5,107.0,2806.8,96.8,338,2155.1,2775.7,228.9,64.6,11.6
0.137454,282.1,116.0,2126.9,99.3,2794.0,90.7,346.4,2155.4,2770.7,229,63.7,-20.8
0.139454,297.9,110.1,2136.2,100.8,2773.5,102.8,355.1,2156.1,2766.7,229.2,62.8,-68.3
0.141454,332.3,92.8,2141.0,118.9,2747.6,119.4,363.8,2157.2,2763.8,229.4,62,-120.6
0.143454,372.0,70.8,2147.1,159.7,2726.9,120.6,372.5,2158.7,2762,229.6,61.3,-167.9
0.145454,402.9,51.5,2167.9,231.2,2714.6,110.9,380.8,2160.6,2761.2,229.8,60.8,-200
0.147454,418.6,38.8,2205.2,316.5,2703.5,110.1,388.8,2162.8,2761.3,230,60.5,-213.5
0.149454,423.8,31.1,2232.3,372.6,2690.5,122.4,396.3,2165.2,2762.2,230.2,60.5,-215.2
0.151454,424.8,27.1,2234.3,394.5,2678.7,156.6,403.1,2167.6,2763.6,230.3,60.7,-210.2
0.153454,425.5,25.5,2238.7,407.4,2680.3,242.4,409.3,2170.1,2765.3,230.5,60.8,-203.4
0.155454,426.0,25.1,2238.8,383.2,2733.9,362.7,414.6,2172.5,2767.2,230.7,61,-200
0.157454,424.8,25.2,2203.1,355.9,2807.8,348.0,419,2174.6,2769.1,230.8,61.1,-200
0.159454,421.7,26.1,2157.6,313.4,2835.6,248.5,422.5,2176.3,2770.7,231,61,-200
0.161454,417.6,27.2,2123.2,233.2,2835.9,162.7,425,2177.7,2772,231.1,60.7,-200
0.163454,413.9,28.3,2107.3,155.8,2832.1,109.4,426.5,2178.5,2772.9,231.2,60.2,-200
0.165454,413.6,29.7,2104.8,104.5,2830.9,80.3,427.1,2178.8,2773.2,231.3,59.6,-200
