time,f1,b1,f2,b2,f3,b3,f1p,f2p,f3p,f0,intensity,harmonicity
0.025624,428.5,51.6,2794.6,44.6,3317.4,252.8,431.7,2847.1,3438.1,198.8,77.3,10.7
0.027624,429.9,49.4,2802.6,40.7,3360.2,292.8,431.7,2848.3,3437.1,198.7,77.2,11.8
0.029624,429.9,48.4,2805.1,43.6,3388.4,343.6,431.6,2850.2,3435.4,198.6,77.2,13.9
0.031624,429.6,48.4,2804.7,52.7,3406.0,406.4,431.6,2852.9,3433.2,198.5,77.1,16.3
0.033624,429.6,49.1,2803.8,67.5,3418.9,474.9,431.5,2856.3,3430.3,198.4,77.1,18.5
0.035624,430.3,50.6,2806.3,84.9,3424.9,534.2,431.4,2860.4,3426.9,198.3,77,20.1
0.037624,431.4,52.4,2815.4,100.0,3418.2,569.8,431.3,2865.1,3422.9,198.1,76.9,20.8
0.039624,432.4,54.4,2831.8,110.4,3401.3,590.0,431.3,2870.4,3418.5,198,76.8,21
0.041624,432.8,56.4,2856.0,117.3,3382.0,632.7,431.3,2876.3,3413.6,197.9,76.7,20.9
0.043624,431.9,58.5,2887.9,118.8,3369.7,744.2,431.3,2882.6,3408.4,197.7,76.7,20.8
0.045624,429.8,60.3,2922.2,108.5,3379.3,971.1,431.4,2889.4,3402.9,197.5,76.7,20.9
0.047624,427.0,61.3,2948.9,90.2,3420.7,1357.9,431.6,2896.5,3397.2,197.4,76.6,21.2
0.049624,424.6,61.8,2965.9,75.6,3461.8,1940.8,431.9,2903.8,3391.3,197.2,76.6,21.6
0.051624,423.5,62.8,2976.2,68.5,3445.0,2577.5,432.3,2911.4,3385.4,197,76.6,22
0.053624,424.1,65.0,2982.3,68.0,3404.9,2917.3,432.9,2919.1,3379.4,196.8,76.6,22.3
0.055624,426.0,68.4,2985.6,72.1,3402.2,2807.3,433.5,2926.8,3373.5,196.6,76.6,22.5
0.057624,429.1,72.0,2987.3,77.6,3438.3,2497.3,434.4,2934.5,3367.7,196.4,76.5,22.6
0.059624,432.7,75.0,2987.8,81.7,3488.7,2229.7,435.4,2942.1,3362.1,196.2,76.5,22.6
0.061624,436.3,77.2,2987.3,82.8,3532.4,2078.9,436.5,2949.5,3356.7,196,76.4,22.5
0.063624,439.5,79.0,2986.3,82.4,3547.1,2019.8,437.8,2956.7,3351.7,195.7,76.4,22.5
0.065624,442.2,80.5,2986.2,83.6,3509.4,1956.6,439.3,2963.5,3347.1,195.5,76.3,22.5
0.067624,444.8,81.6,2987.7,89.1,3429.9,1813.1,441,2970,3342.9,195.2,76.3,22.7
0.069624,447.6,82.4,2990.0,99.0,3348.4,1623.2,442.8,2976.1,3339.2,195,76.3,22.9
0.071624,451.0,83.2,2992.4,110.3,3283.4,1448.8,444.7,2981.6,3336,194.7,76.2,23.2
0.073624,454.8,84.3,2995.9,119.4,3233.2,1311.3,446.8,2986.7,3333.4,194.4,76.2,23.3
0.075624,458.8,85.7,3000.7,124.7,3198.9,1213.9,449.1,2991.1,3331.3,194.2,76.2,23.1
0.077624,462.4,87.2,3005.3,127.8,3187.1,1159.7,451.4,2995,3329.8,193.9,76.1,22.6
0.079624,464.7,88.4,3007.1,131.3,3201.0,1140.0,453.9,2998.2,3328.9,193.6,76,21.8
0.081624,465.9,88.8,3005.7,136.0,3239.2,1130.3,456.4,3000.7,3328.6,193.3,76,20.9
0.083624,466.3,88.3,3001.2,139.5,3289.1,1102.0,458.9,3002.6,3328.9,193,76,20.1
0.085624,466.9,86.8,2994.2,141.0,3329.1,1028.8,461.5,3003.8,3329.7,192.7,75.9,19.6
0.087624,467.7,85.1,2985.9,141.5,3344.5,925.0,464,3004.3,3331.1,192.4,75.9,19.5
0.089624,468.8,83.5,2978.1,140.5,3349.4,816.7,466.5,3004.1,3332.9,192.1,75.9,19.7
0.091624,470.2,82.2,2973.6,136.4,3352.1,726.1,468.9,3003.2,3335.2,191.8,75.9,20
0.093624,472.5,80.8,2972.8,129.8,3350.7,658.9,471.2,3001.6,3338,191.5,76,20.2
0.095624,475.6,78.9,2971.8,123.1,3345.4,608.1,473.4,2999.4,3341,191.2,76,20.1
0.097624,479.1,76.7,2967.3,116.3,3341.6,569.6,475.4,2996.6,3344.4,190.9,76,19.7
0.099624,482.2,75.0,2960.3,108.4,3341.9,547.5,477.2,2993.1,3347.9,190.6,76,19
0.101624,484.6,74.2,2955.5,99.3,3339.1,540.9,478.7,2989.1,3351.6,190.3,76,18.2
0.103624,486.2,73.9,2956.1,90.6,3322.7,536.0,480,2984.5,3355.4,190,76,17.5
0.105624,487.3,73.4,2960.0,83.4,3294.6,515.3,481,2979.4,3359.2,189.6,76,17.2
0.107624,487.7,72.6,2963.0,77.4,3272.0,480.8,481.7,2973.7,3362.9,189.3,76,17.4
0.109624,487.1,72.2,2963.8,71.1,3269.8,450.9,482,2967.6,3366.4,189,76,17.9
0.111624,485.6,72.5,2962.4,65.0,3288.2,431.4,482.1,2961.1,3369.6,188.7,76,18.5
0.113624,483.6,73.2,2958.7,60.2,3319.4,413.6,481.7,2954.1,3372.5,188.4,76,19.1
0.115624,481.6,73.6,2953.1,56.8,3355.7,389.7,481.1,2946.8,3375,188.1,76,19.4
0.117624,479.2,73.6,2946.8,54.5,3389.2,359.8,480.1,2939.1,3377,187.8,75.9,19.4
0.119624,476.1,73.0,2941.0,53.1,3413.9,330.4,478.7,2931,3378.5,187.5,75.9,19.2
0.121624,472.1,71.9,2936.1,52.7,3429.7,306.7,477,2922.6,3379.3,187.2,75.8,18.9
0.123624,467.3,70.0,2930.8,53.4,3439.5,288.3,475.1,2913.8,3379.5,186.9,75.8,18.4
0.125624,462.0,67.4,2923.2,55.5,3446.2,271.1,472.8,2904.7,3378.9,186.5,75.8,18
0.127624,456.3,64.1,2911.7,59.0,3450.9,252.0,470.3,2895.3,3377.5,186.2,75.8,17.3
0.129624,450.4,60.0,2895.9,63.1,3453.4,232.1,467.6,2885.5,3375.2,185.9,75.8,16.6
0.131624,445.2,55.6,2878.7,66.3,3454.4,216.3,464.7,2875.4,3372.1,185.6,75.9,15.8
0.133624,440.5,51.1,2861.7,68.5,3454.7,208.0,461.7,2864.9,3368.2,185.3,76,15
0.135624,436.7,47.1,2848.0,70.8,3454.2,211.7,458.6,2854,3363.2,185,76.1,14.3
0.137624,433.6,43.7,2838.3,74.9,3452.7,231.1,455.5,2842.7,3357.4,184.7,76.2,13.7
0.139624,431.4,40.8,2832.6,82.6,3450.4,273.3,452.5,2830.9,3350.7,184.4,76.4,13.2
0.141624,430.1,38.3,2829.0,95.9,3447.7,351.3,449.6,2818.6,3343,184.1,76.5,12.7
0.143624,429.5,36.5,2822.0,116.8,3443.6,495.0,446.9,2805.8,3334.4,183.8,76.7,12.3
0.145624,429.8,35.4,2804.7,142.1,3346.5,779.4,444.4,2792.5,3325,183.5,76.9,11.9
0.147624,430.8,35.4,2773.1,158.8,3207.8,673.1,442.2,2778.5,3314.7,183.2,77,11.7
0.149624,432.7,36.7,2739.9,153.6,3176.0,551.7,440.5,2763.9,3303.6,183,77.2,11.4
0.151624,435.3,39.2,2713.0,137.6,3171.0,465.0,439.2,2748.6,3291.8,182.7,77.3,11.3
0.153624,438.7,42.6,2691.9,120.7,3173.0,398.9,438.4,2732.5,3279.2,182.4,77.5,11.1
0.155624,443.0,46.9,2675.2,105.5,3179.2,349.1,438.3,2715.6,3266,182.1,77.6,11
0.157624,447.8,51.7,2661.7,93.2,3188.1,314.7,438.8,2697.8,3252.1,181.9,77.8,10.9
0.159624,453.2,57.0,2649.2,84.4,3195.8,291.2,440,2679.2,3237.8,181.6,77.9,10.8
0.161624,459.0,62.5,2636.1,80.0,3197.3,275.3,442,2659.6,3223,181.4,78,10.7
0.163624,465.0,68.2,2620.8,80.5,3189.9,264.6,444.8,2639.1,3207.8,181.1,78.1,10.7
0.165624,471.1,73.7,2601.4,83.9,3175.9,253.6,448.5,2617.6,3192.3,180.9,78.1,10.6
0.167624,476.9,79.1,2578.0,85.3,3161.8,238.4,453.1,2595.1,3176.6,180.7,78.1,10.3
0.169624,482.4,84.8,2553.5,82.0,3150.9,222.1,458.7,2571.5,3160.7,180.5,78.1,10
0.171624,487.3,91.0,2533.0,76.3,3142.0,210.0,465.2,2547,3144.7,180.2,78,9.8
0.173624,492.7,98.6,2516.5,71.7,3132.5,203.0,472.7,2521.3,3128.6,180,78,9.7
0.175624,498.4,107.5,2504.7,71.0,3121.5,202.4,481.2,2494.7,3112.7,179.8,77.9,9.8
0.177624,504.9,118.6,2495.7,75.2,3108.4,207.8,490.7,2467,3096.8,179.6,77.7,10.4
0.179624,512.9,133.9,2488.4,85.1,3093.9,218.6,501.1,2438.3,3081.1,179.4,77.6,11.2
0.181624,521.9,153.4,2482.8,100.7,3080.6,232.6,512.5,2408.7,3065.6,179.3,77.4,12.2
0.183624,533.0,177.4,2478.0,123.0,3067.9,246.2,524.8,2378.2,3050.4,179.1,77.3,13.2
0.185624,546.8,205.4,2472.8,153.3,3053.4,258.0,537.9,2346.8,3035.6,178.9,77.1,13.9
0.187624,563.7,237.4,2464.7,195.2,3033.6,269.1,551.9,2314.6,3021,178.7,76.9,14.4
0.189624,583.1,272.7,2449.5,254.0,3005.8,277.3,566.6,2281.6,3006.9,178.5,76.8,14.8
0.191624,604.1,310.4,2420.2,331.9,2971.3,276.4,582,2248.1,2993.2,178.3,76.6,15.1
0.193624,625.1,347.4,2371.2,422.5,2937.5,263.3,598,2214,2980,178.2,76.5,15.2
0.195624,644.3,380.4,2301.4,514.4,2912.6,245.8,614.6,2179.4,2967.2,178,76.3,15.3
0.197624,659.4,407.6,2200.9,597.7,2897.6,229.9,631.6,2144.5,2954.9,177.8,76.2,15.3
0.199624,668.6,423.0,2064.8,618.9,2891.6,211.8,648.9,2109.3,2943.1,177.6,76.1,15.1
0.201624,674.1,423.3,1944.7,547.3,2894.7,191.3,666.5,2074,2931.7,177.4,76.1,14.9
0.203624,680.5,412.9,1857.2,436.9,2904.3,170.2,684.2,2038.7,2920.8,177.2,76.1,14.6
0.205624,687.8,396.5,1805.6,342.6,2914.1,154.6,702,2003.5,2910.3,177,76.1,14.4
0.207624,695.9,377.3,1774.2,266.3,2921.1,144.4,719.7,1968.6,2900.2,176.8,76.2,14.2
0.209624,705.2,360.0,1755.4,208.4,2925.4,138.3,737.3,1934,2890.5,176.6,76.3,13.9
0.211624,715.6,347.0,1744.3,167.7,2927.7,133.6,754.5,1899.9,2881.2,176.4,76.4,13.7
0.213624,727.0,338.0,1737.0,140.3,2928.9,128.4,771.4,1866.4,2872.2,176.2,76.5,13.4
0.215624,739.3,333.6,1730.9,122.9,2930.2,123.2,787.8,1833.6,2863.6,176,76.7,13.1
0.217624,753.3,335.2,1725.0,113.7,2932.8,121.8,803.6,1801.7,2855.1,175.8,76.8,12.6
0.219624,769.5,344.1,1719.3,111.9,2937.4,129.5,818.7,1770.7,2846.9,175.5,76.8,11.9
0.221624,788.8,359.7,1713.5,116.7,2941.7,151.5,833.1,1740.8,2838.9,175.3,76.8,11.2
0.223624,809.8,376.9,1707.1,127.0,2939.7,189.6,846.6,1712.1,2831.1,175.1,76.9,10.7
0.225624,829.5,389.5,1698.6,142.3,2920.8,239.3,859.1,1684.6,2823.3,174.8,76.9,10.4
0.227624,844.5,392.7,1685.1,160.7,2877.9,284.5,870.7,1658.5,2815.6,174.6,76.9,10.4
0.229624,854.0,384.1,1665.2,174.6,2820.3,299.6,881.3,1633.7,2808,174.3,76.9,10.6
0.231624,861.4,368.9,1642.2,178.6,2769.1,276.6,890.7,1610.4,2800.3,174.1,76.9,11
0.233624,870.4,355.4,1620.9,175.1,2738.1,235.6,899,1588.7,2792.7,173.8,77,11.3
0.235624,880.8,347.6,1603.6,169.1,2727.1,200.3,906.2,1568.4,2785,173.6,77.2,11.5
0.237624,893.0,343.0,1586.3,161.1,2727.5,172.1,912.2,1549.8,2777.3,173.4,77.3,11.4
0.239624,903.3,338.2,1569.8,150.9,2729.6,152.3,917,1532.8,2769.4,173.1,77.5,11.2
0.241624,911.4,330.5,1554.5,139.2,2726.1,138.9,920.7,1517.3,2761.5,172.9,77.6,10.9
0.243624,918.6,320.2,1541.2,129.0,2714.7,132.9,923.2,1503.4,2753.6,172.7,77.8,10.7
0.245624,926.4,307.6,1530.3,120.3,2698.4,134.1,924.6,1491.1,2745.5,172.5,78,10.8
0.247624,936.3,294.9,1523.2,113.2,2684.4,142.9,924.9,1480.3,2737.3,172.3,78.1,11.3
0.249624,950.1,283.9,1520.2,108.6,2676.4,160.8,924.3,1471,2729.1,172.1,78.2,12
0.251624,965.4,274.4,1519.2,105.0,2672.2,183.9,922.6,1463.1,2720.8,171.9,78.4,12.9
0.253624,977.6,265.2,1518.0,100.1,2667.4,200.5,920.1,1456.6,2712.5,171.7,78.5,13.6
0.255624,985.5,256.6,1515.0,94.1,2660.2,201.6,916.8,1451.3,2704.2,171.6,78.5,14.2
0.257624,989.8,251.3,1509.9,88.5,2653.1,189.4,912.7,1447.2,2695.9,171.4,78.6,14.4
0.259624,990.1,252.8,1504.1,85.1,2648.8,174.5,908,1444.2,2687.7,171.3,78.5,14.4
0.261624,986.4,260.6,1498.8,85.3,2647.1,164.6,902.8,1442.2,2679.5,171.2,78.4,14.4
0.263624,980.4,271.5,1493.8,88.3,2646.3,158.8,897.1,1441.1,2671.5,171,78.3,14.3
0.265624,973.8,283.5,1488.3,91.7,2646.6,151.8,891,1440.8,2663.7,171,78.1,14.3
0.267624,965.1,295.8,1481.0,94.0,2648.7,140.0,884.8,1441.2,2656.1,170.9,77.9,14.3
0.269624,951.7,304.6,1471.8,94.2,2651.9,126.7,878.4,1442.1,2648.8,170.8,77.7,14.4
0.271624,931.0,306.1,1460.8,92.1,2654.8,116.4,872,1443.5,2641.7,170.8,77.5,14.4
0.273624,906.1,299.5,1449.9,90.5,2656.9,112.7,865.6,1445.3,2635.1,170.7,77.3,14.4
0.275624,880.5,290.6,1439.5,91.8,2657.9,115.2,859.4,1447.3,2628.8,170.7,77.1,14.4
0.277624,857.3,284.1,1431.0,95.8,2657.0,122.4,853.5,1449.4,2623,170.7,76.9,14.5
0.279624,837.6,278.5,1425.5,99.8,2653.5,134.1,848,1451.6,2617.6,170.7,76.7,14.5
0.281624,820.6,272.0,1422.4,101.8,2646.6,150.5,842.9,1453.8,2612.8,170.7,76.6,14.5
0.283624,803.6,264.6,1419.9,100.6,2636.8,168.8,838.3,1455.9,2608.6,170.7,76.4,14.4
0.285624,786.3,256.5,1416.5,97.0,2626.4,182.6,834.3,1457.7,2605,170.7,76.3,14.2
0.287624,769.9,248.0,1412.0,91.8,2616.9,185.9,831,1459.3,2601.9,170.7,76.1,13.8
0.289624,754.8,240.6,1406.6,85.4,2608.6,177.4,828.3,1460.7,2599.6,170.8,75.9,13.3
0.291624,740.6,235.9,1400.6,78.6,2603.9,160.3,826.4,1461.6,2597.8,170.8,75.6,12.6
0.293624,726.9,236.0,1394.8,72.4,2607.7,138.8,825.2,1462.2,2596.8,170.9,75.4,12
0.295624,712.4,243.1,1390.5,66.7,2620.8,117.1,824.8,1462.4,2596.5,170.9,75.1,11.3
