time,f1,b1,f2,b2,f3,b3,f1p,f2p,f3p,f0,intensity,harmonicity
0.025054,256.0,66.8,2700.6,227.9,3536.2,459.8,287.9,2701.4,3789.7,212.6,66.5,15.4
0.027054,257.2,67.1,2721.9,257.7,3591.8,518.6,287.9,2701.8,3789.9,212.9,67.1,16.6
0.029054,257.9,66.2,2756.2,292.2,3700.1,553.6,287.9,2702.5,3790.2,213.2,67.5,17.7
0.031054,257.3,62.8,2781.9,331.2,3797.1,539.3,287.9,2703.4,3790.5,213.5,67.9,18.6
0.033054,256.3,58.5,2784.9,361.6,3848.2,518.7,287.9,2704.6,3791,213.9,68.2,19.4
0.035054,256.0,56.1,2773.1,360.2,3859.3,505.3,287.9,2706,3791.5,214.3,68.4,20.1
0.037054,256.8,56.5,2755.7,320.7,3835.0,483.1,287.9,2707.7,3792.1,214.7,68.5,20.7
0.039054,258.6,59.5,2736.2,267.6,3798.9,436.6,288,2709.6,3792.7,215.2,68.6,21.1
0.041054,261.5,64.3,2716.7,222.3,3784.0,374.4,288,2711.7,3793.3,215.7,68.6,21.3
0.043054,265.3,69.6,2698.3,191.6,3791.5,326.1,288.1,2714,3793.9,216.2,68.6,21.5
0.045054,269.8,74.6,2683.7,169.1,3807.5,304.5,288.2,2716.5,3794.3,216.7,68.5,21.6
0.047054,274.7,79.3,2676.3,149.3,3824.0,310.1,288.3,2719.1,3794.7,217.3,68.3,21.6
0.049054,279.1,82.8,2676.3,136.6,3823.7,341.5,288.6,2721.9,3794.9,217.9,68.1,21.6
0.051054,283.4,85.9,2678.5,132.9,3789.2,376.9,288.8,2724.8,3795,218.5,67.8,21.5
0.053054,288.9,90.8,2678.8,133.6,3738.0,372.0,289.1,2727.7,3794.8,219.1,67.5,21.3
0.055054,297.0,98.7,2679.2,132.6,3713.0,334.1,289.5,2730.8,3794.3,219.7,67.1,20.8
0.057054,309.0,108.0,2685.5,127.0,3728.7,297.0,290,2733.9,3793.6,220.4,66.5,19.9
0.059054,322.7,114.4,2697.3,116.1,3768.2,274.7,290.6,2737.1,3792.5,221,65.9,18.5
0.061054,336.6,115.8,2707.3,102.1,3813.0,255.8,291.2,2740.2,3791,221.7,65.2,16.8
0.063054,348.8,112.4,2710.7,89.3,3849.2,230.3,292,2743.3,3789,222.4,64.5,15.1
0.065054,357.4,106.1,2709.9,79.6,3872.1,202.3,292.8,2746.4,3786.6,223.1,63.9,13.7
0.067054,360.9,100.7,2708.8,73.5,3883.6,179.5,293.8,2749.3,3783.7,223.7,63.5,12.8
0.069054,358.9,100.2,2709.1,72.1,3882.8,167.9,295,2752.2,3780.3,224.4,63.6,12.1
0.071054,352.9,105.1,2711.0,77.3,3870.8,169.3,296.2,2754.9,3776.2,225.1,63.9,11.6
0.073054,345.7,112.9,2713.9,92.2,3856.6,182.9,297.6,2757.5,3771.6,225.8,64.6,11.4
0.075054,339.4,120.6,2716.1,118.8,3855.9,202.2,299.1,2759.9,3766.3,226.5,65.4,11.6
0.077054,334.7,125.7,2714.9,155.5,3878.6,209.8,300.8,2762,3760.4,227.1,66.2,12.4
0.079054,331.6,126.7,2715.4,190.5,3905.0,194.4,302.6,2764,3753.8,227.8,66.9,13.9
0.081054,327.5,124.6,2737.6,223.9,3910.1,190.8,304.6,2765.6,3746.4,228.4,67.6,15.9
0.083054,320.9,121.1,2789.5,251.1,3888.7,225.1,306.7,2767,3738.4,229.1,68.1,18
0.085054,315.1,117.1,2837.8,257.1,3841.2,283.3,309,2768,3729.7,229.7,68.6,19.7
0.087054,312.3,114.4,2860.0,245.7,3770.0,324.6,311.5,2768.7,3720.2,230.4,68.9,20.7
0.089054,314.0,114.1,2861.9,231.1,3702.5,325.4,314.1,2769.1,3710,231,69.2,21.2
0.091054,318.2,114.6,2859.4,227.1,3655.5,309.4,316.9,2769,3699.1,231.7,69.3,21.4
0.093054,320.3,115.0,2860.6,244.1,3632.4,300.7,319.8,2768.6,3687.5,232.3,69.4,21.5
0.095054,319.5,115.0,2861.7,279.1,3619.0,306.8,322.9,2767.7,3675.1,233,69.4,21.5
0.097054,319.2,114.2,2850.7,315.0,3600.7,320.7,326.1,2766.4,3662.1,233.6,69.4,21.6
0.099054,321.6,113.9,2823.0,331.1,3574.8,328.6,329.5,2764.7,3648.5,234.2,69.4,21.6
0.101054,324.6,114.0,2789.5,333.5,3542.8,323.9,333,2762.5,3634.2,234.9,69.4,21.5
0.103054,324.1,113.6,2763.5,342.8,3506.0,300.1,336.6,2759.8,3619.3,235.5,69.4,21.5
0.105054,319.2,112.1,2744.5,363.3,3471.3,259.6,340.4,2756.6,3603.9,236.2,69.5,21.6
0.107054,313.7,109.3,2725.4,383.4,3447.0,220.3,344.2,2752.9,3587.9,236.8,69.6,22
0.109054,311.9,107.9,2708.0,396.5,3434.6,196.5,348.2,2748.7,3571.4,237.5,69.7,22.7
0.111054,314.3,109.1,2696.6,408.8,3428.8,188.8,352.3,2744,3554.6,238.1,69.8,23.6
0.113054,320.2,111.0,2694.5,427.0,3425.2,199.2,356.4,2738.8,3537.3,238.8,70,24.4
0.115054,326.9,111.4,2702.1,450.8,3420.1,232.3,360.7,2733,3519.7,239.4,70.1,24.9
0.117054,331.3,111.3,2713.4,462.8,3415.9,293.0,365,2726.7,3501.8,240.1,70.2,25
0.119054,332.8,112.4,2713.1,432.1,3425.2,357.1,369.3,2719.9,3483.6,240.7,70.2,24.7
0.121054,335.7,114.0,2697.3,359.9,3452.0,394.5,373.8,2712.6,3465.3,241.4,70.2,24
0.123054,343.6,115.1,2680.1,276.4,3481.7,402.0,378.2,2704.8,3446.9,242,70.2,23.4
0.125054,355.3,113.9,2672.5,211.3,3497.1,394.3,382.7,2696.5,3428.4,242.7,70.2,22.9
0.127054,366.6,111.5,2672.8,177.6,3488.9,382.9,387.1,2687.6,3409.9,243.3,70.1,22.7
0.129054,374.4,111.6,2674.6,176.0,3465.8,382.0,391.6,2678.3,3391.4,243.9,70.1,22.8
0.131054,380.4,113.5,2676.4,200.2,3439.0,397.1,396,2668.5,3373.1,244.6,70,23.1
0.133054,387.0,115.0,2680.4,250.7,3404.7,411.8,400.5,2658.2,3354.9,245.2,70,23.3
0.135054,395.4,114.7,2683.9,328.9,3352.8,386.7,404.9,2647.5,3337,245.8,69.8,23.4
0.137054,405.6,112.3,2667.6,402.6,3298.8,297.3,409.2,2636.3,3319.3,246.4,69.7,23.2
0.139054,415.7,108.3,2625.8,398.9,3271.1,205.0,413.5,2624.7,3301.9,247,69.5,22.7
0.141054,425.5,103.7,2580.6,345.7,3259.6,147.5,417.7,2612.6,3284.9,247.6,69.2,22.1
0.143054,434.8,99.0,2543.0,294.1,3256.7,119.5,421.9,2600.2,3268.3,248.1,69,21.3
0.145054,443.8,94.5,2515.3,259.4,3261.0,110.6,425.9,2587.4,3252.2,248.7,68.7,20.6
0.147054,451.8,90.5,2500.5,242.6,3273.0,116.8,429.9,2574.2,3236.6,249.2,68.5,20
0.149054,457.8,86.8,2501.0,239.4,3287.9,134.2,433.8,2560.7,3221.4,249.7,68.4,19.2
0.151054,462.7,82.2,2510.1,233.4,3297.5,155.1,437.6,2546.9,3206.9,250.2,68.3,18.5
0.153054,467.4,76.3,2515.6,211.5,3294.2,169.4,441.2,2532.7,3192.9,250.6,68.4,17.9
0.155054,471.5,70.8,2511.6,179.6,3275.1,176.2,444.8,2518.3,3179.5,251.1,68.6,17.5
0.157054,474.3,67.7,2503.4,156.5,3237.0,186.8,448.2,2503.6,3166.7,251.5,68.8,17.5
0.159054,474.8,68.5,2497.0,155.2,3183.5,202.5,451.5,2488.7,3154.6,251.9,69.2,17.9
0.161054,474.0,71.5,2491.2,169.6,3127.0,208.5,454.7,2473.6,3143.1,252.3,69.6,18.6
0.163054,472.6,75.0,2487.0,188.1,3089.2,199.9,457.8,2458.3,3132.3,252.7,70,19.4
0.165054,470.7,79.3,2488.8,208.3,3078.3,192.5,460.7,2442.8,3122.1,253,70.4,20.3
0.167054,467.5,85.7,2497.2,238.5,3085.7,196.5,463.5,2427.1,3112.6,253.3,70.7,21.2
0.169054,463.9,91.7,2501.4,273.5,3095.7,205.0,466.2,2411.4,3103.6,253.6,71.1,22.4
0.171054,462.5,95.2,2488.7,296.7,3098.4,203.1,468.7,2395.5,3095.4,253.9,71.4,23.8
0.173054,465.0,94.4,2455.0,293.6,3092.7,184.7,471.1,2379.5,3087.7,254.2,71.6,25
0.175054,471.2,88.3,2407.8,266.9,3081.9,157.7,473.4,2363.5,3080.6,254.4,71.8,26
0.177054,478.2,78.2,2356.9,229.3,3070.6,134.8,475.6,2347.4,3074.1,254.6,72,26.5
0.179054,482.9,70.4,2317.9,199.7,3064.7,127.4,477.7,2331.2,3068.1,254.8,72.1,26.6
0.181054,485.6,67.4,2293.1,183.2,3064.2,137.3,479.6,2315.1,3062.6,255,72.2,26.5
0.183054,486.9,68.1,2280.1,177.4,3064.1,166.1,481.5,2299,3057.6,255.2,72.3,26.2
0.185054,487.0,70.8,2276.8,179.4,3058.0,220.8,483.3,2282.8,3053,255.4,72.4,26
0.187054,486.1,74.1,2279.3,189.3,3039.9,304.6,484.9,2266.8,3048.8,255.5,72.5,26
0.189054,485.2,76.1,2278.7,203.2,3014.8,374.5,486.5,2250.7,3045,255.7,72.6,26
0.191054,485.3,76.3,2266.9,215.5,2994.7,393.9,487.9,2234.8,3041.6,255.8,72.7,26.1
0.193054,486.4,75.0,2242.0,220.9,2984.6,372.1,489.3,2218.9,3038.4,255.9,72.8,26.2
0.195054,488.2,72.3,2206.3,214.0,2980.8,340.2,490.7,2203.1,3035.5,256,72.9,26.4
0.197054,490.6,68.3,2165.1,191.3,2983.1,323.5,491.9,2187.4,3032.8,256.1,73,26.7
0.199054,492.6,64.5,2130.9,161.9,2996.8,341.7,493.1,2171.9,3030.2,256.2,73.1,27.2
0.201054,493.8,61.9,2104.9,134.9,3030.3,397.1,494.2,2156.5,3027.8,256.2,73.3,27.7
0.203054,494.5,60.5,2083.9,111.8,3079.4,457.3,495.3,2141.2,3025.5,256.3,73.4,28.3
0.205054,495.3,59.0,2066.5,91.0,3110.1,470.1,496.3,2126,3023.2,256.4,73.6,28.7
0.207054,497.2,56.0,2053.2,70.6,3097.6,429.4,497.3,2111,3020.9,256.4,73.7,29
0.209054,500.2,50.8,2044.4,52.7,3059.8,367.9,498.2,2096.1,3018.7,256.4,73.9,29
0.211054,503.1,44.0,2037.8,38.8,3022.1,308.8,499.1,2081.5,3016.3,256.5,74,29
0.213054,505.0,38.2,2032.3,30.6,3000.1,270.2,500,2066.9,3013.9,256.5,74.2,28.9
0.215054,505.9,35.1,2027.7,27.4,2993.6,260.8,500.8,2052.6,3011.4,256.5,74.3,28.9
0.217054,506.2,34.3,2023.4,27.6,2991.2,282.2,501.6,2038.4,3008.8,256.5,74.4,29
0.219054,506.2,35.0,2020.1,29.9,2987.4,333.8,502.3,2024.4,3006,256.5,74.5,29.1
0.221054,505.8,37.0,2017.7,34.2,2987.8,422.6,503,2010.6,3003,256.5,74.6,29.3
0.223054,505.2,40.1,2015.5,41.1,3002.7,561.3,503.7,1997,2999.9,256.5,74.6,29.5
0.225054,504.5,43.9,2011.3,51.7,3032.4,765.6,504.4,1983.6,2996.5,256.5,74.7,29.8
0.227054,503.4,48.1,2002.3,68.1,3062.6,1048.4,505,1970.3,2993,256.5,74.7,30
0.229054,502.2,51.1,1988.2,89.8,3062.2,1305.4,505.6,1957.2,2989.2,256.5,74.8,30.3
0.231054,501.0,52.3,1968.9,119.4,3017.6,1362.5,506.1,1944.3,2985.2,256.5,74.8,30.6
0.233054,500.3,51.9,1943.7,155.3,2959.8,1184.9,506.6,1931.6,2981,256.4,74.8,30.9
0.235054,499.8,50.9,1914.7,183.3,2918.3,949.3,507.1,1919.1,2976.6,256.4,74.9,31.1
0.237054,499.5,49.7,1889.7,192.2,2894.0,773.1,507.5,1906.7,2971.9,256.3,74.9,31.3
0.239054,499.2,48.7,1875.8,189.7,2884.3,696.7,507.9,1894.6,2967.1,256.3,74.9,31.5
0.241054,499.0,47.9,1869.0,185.2,2884.4,703.5,508.2,1882.6,2962.1,256.2,75,31.7
0.243054,499.0,47.3,1865.3,179.4,2889.9,784.2,508.4,1870.7,2956.9,256.2,75,31.9
0.245054,498.9,47.0,1862.1,172.8,2896.2,928.3,508.6,1859.1,2951.5,256.1,75,32
0.247054,498.7,46.8,1858.6,169.3,2903.6,1108.0,508.8,1847.6,2946,256,75,32.1
0.249054,498.3,46.7,1854.6,173.0,2920.2,1229.2,508.8,1836.3,2940.4,255.9,75.1,32.1
0.251054,497.9,46.6,1848.7,184.7,2945.4,1231.0,508.8,1825.2,2934.7,255.8,75.1,32.1
0.253054,497.9,46.4,1839.8,199.1,2958.8,1122.4,508.7,1814.2,2928.9,255.7,75.1,32.1
0.255054,498.3,45.8,1829.8,209.4,2953.7,981.5,508.6,1803.4,2923.1,255.6,75.1,32.1
0.257054,499.0,44.9,1821.8,216.2,2940.3,878.8,508.3,1792.8,2917.2,255.5,75.1,32
0.259054,499.5,44.0,1816.8,223.4,2927.4,835.8,508,1782.3,2911.4,255.4,75.1,31.9
0.261054,500.0,43.2,1811.5,234.0,2916.2,816.1,507.5,1772,2905.5,255.2,75.1,31.8
0.263054,500.1,42.8,1802.5,249.6,2906.1,769.5,507,1761.8,2899.8,255.1,75.2,31.7
0.265054,499.8,42.9,1788.5,267.7,2892.9,664.7,506.4,1751.8,2894.1,254.9,75.1,31.6
0.267054,499.6,43.1,1770.1,282.6,2876.8,534.8,505.6,1742,2888.5,254.8,75.1,31.7
0.269054,499.6,43.0,1750.8,289.0,2865.7,441.7,504.8,1732.3,2883,254.6,75.1,31.9
0.271054,499.9,42.7,1729.8,287.1,2862.2,392.9,503.9,1722.8,2877.7,254.4,75.1,32.2
0.273054,500.2,42.0,1708.0,278.7,2866.1,383.8,502.8,1713.5,2872.5,254.2,75,32.4
0.275054,500.5,41.2,1688.5,268.0,2875.8,409.4,501.7,1704.4,2867.6,253.9,75,32.5
0.277054,500.9,40.2,1673.9,257.1,2892.4,468.6,500.5,1695.4,2862.8,253.7,74.9,32.3
0.279054,501.5,38.8,1667.8,246.1,2915.5,548.8,499.1,1686.5,2858.3,253.5,74.9,31.8
0.281054,502.0,36.9,1669.3,236.7,2940.1,630.1,497.7,1677.9,2854,253.2,74.9,31.2
0.283054,502.0,35.4,1672.4,236.4,2950.7,671.0,496.2,1669.4,2849.9,252.9,74.8,30.5
0.285054,501.3,34.7,1666.8,248.7,2941.3,641.4,494.6,1661.1,2846.2,252.7,74.8,30
0.287054,500.1,34.8,1647.1,270.5,2920.7,546.8,492.9,1653,2842.6,252.4,74.7,29.6
0.289054,498.8,35.4,1621.2,292.2,2896.0,427.3,491.1,1645.1,2839.4,252,74.6,29.5
0.291054,497.6,35.8,1598.8,307.3,2869.4,312.6,489.3,1637.4,2836.4,251.7,74.5,29.4
0.293054,496.5,35.9,1585.5,310.3,2847.9,224.0,487.4,1629.9,2833.8,251.4,74.4,29.4
0.295054,495.5,35.4,1579.4,296.8,2832.8,163.7,485.4,1622.6,2831.3,251,74.3,29.4
0.297054,494.5,34.6,1575.6,273.4,2820.6,126.1,483.4,1615.5,2829.2,250.7,74.2,29.5
0.299054,493.3,34.2,1572.2,263.5,2810.1,110.8,481.4,1608.6,2827.3,250.3,74.1,29.7
0.301054,491.5,34.3,1569.3,278.7,2800.3,112.6,479.4,1601.9,2825.7,249.9,74,30.1
0.303054,489.1,34.4,1565.1,318.3,2791.0,130.0,477.3,1595.5,2824.3,249.5,73.8,30.3
0.305054,486.8,33.6,1557.7,360.5,2781.9,157.2,475.2,1589.2,2823.2,249.1,73.7,30.2
0.307054,485.5,31.9,1552.4,368.9,2773.6,180.0,473.1,1583.3,2822.3,248.7,73.5,29.6
0.309054,485.4,30.1,1555.3,336.0,2768.0,187.9,471,1577.6,2821.6,248.3,73.4,28.4
0.311054,485.9,28.2,1562.4,287.7,2763.2,192.0,469,1572.1,2821.1,247.9,73.2,26.9
0.313054,486.1,26.4,1569.3,249.4,2759.4,212.4,466.9,1566.9,2820.7,247.5,73.1,25.4
0.315054,485.9,24.8,1574.3,230.1,2757.3,264.0,465,1561.9,2820.5,247,72.9,24.2
0.317054,485.5,23.1,1575.6,225.7,2754.6,350.1,463.1,1557.2,2820.5,246.6,72.7,23.5
0.319054,485.0,21.4,1572.5,228.8,2750.5,437.0,461.2,1552.8,2820.5,246.2,72.5,23.5
0.321054,484.6,19.9,1566.9,226.7,2749.8,454.1,459.4,1548.7,2820.7,245.8,72.3,23.7
0.323054,484.2,19.0,1560.7,219.5,2756.7,369.1,457.7,1544.8,2820.9,245.3,72.1,23.9
0.325054,483.6,18.6,1556.5,220.3,2770.2,261.7,456.1,1541.2,2821.2,244.9,71.8,23.6
0.327054,482.9,18.7,1560.1,236.9,2790.4,188.4,454.7,1538,2821.6,244.5,71.4,22.7
0.329054,482.1,19.3,1574.5,268.9,2814.8,158.8,453.3,1535,2822,244.1,71,21.1
0.331054,480.9,20.4,1592.9,317.5,2841.1,162.0,452,1532.3,2822.3,243.8,70.5,19.2
0.333054,478.8,22.6,1601.5,383.7,2864.5,198.3,450.9,1529.9,2822.7,243.4,69.9,17.1
0.335054,475.1,28.6,1596.1,473.6,2880.6,272.6,449.9,1527.9,2823.1,243.1,69.3,15
0.337054,467.1,45.0,1586.7,612.4,2887.1,385.6,449.1,1526.1,2823.4,242.7,68.6,13.1
0.339054,450.6,80.0,1577.8,771.3,2879.1,484.6,448.4,1524.7,2823.7,242.4,68.1,10.9
0.341054,415.7,130.6,1533.9,851.7,2859.5,506.4,447.8,1523.6,2823.9,242.1,67.7,8.5
0.343054,360.8,146.4,1453.8,720.2,2850.9,448.9,447.4,1522.8,2824,241.8,67.4,6.6
0.345054,323.5,118.3,1423.6,483.4,2862.7,380.6,447.2,1522.3,2824.1,241.5,67.1,5.4
0.347054,313.7,99.7,1428.8,330.7,2885.9,354.2,447.1,1522.1,2824.2,241.3,66.7,6.2
