time,f1,b1,f2,b2,f3,b3,f1p,f2p,f3p,f0,intensity,harmonicity
0.025018,743.2,628.8,2019.8,375.2,2950.2,468.8,817.9,2108.7,2978,167.1,77.9,5.1
0.027018,771.0,538.3,2070.7,377.3,2963.5,453.0,818.4,2111.3,2979.9,166.9,78.1,6
0.029018,791.5,484.3,2114.3,363.8,2977.6,442.8,819.4,2115.4,2982.9,166.7,78.3,6.1
0.031018,810.8,465.7,2143.4,338.1,2990.7,429.7,820.7,2120.9,2987.1,166.5,78.5,5.8
0.033018,832.3,465.9,2159.9,310.5,3001.8,414.9,822.5,2127.8,2992.1,166.3,78.6,5.4
0.035018,856.1,466.2,2170.7,287.0,3012.1,405.2,824.7,2135.7,2997.8,166.1,78.7,5.1
0.037018,879.9,461.1,2180.3,268.4,3023.0,402.4,827.3,2144.5,3004,165.8,78.7,5.1
0.039018,895.7,452.6,2187.3,253.8,3031.9,398.1,830.5,2153.8,3010.4,165.6,78.8,5.7
0.041018,894.2,438.7,2188.4,242.1,3034.8,381.1,834.2,2163.4,3016.8,165.4,78.9,6.7
0.043018,878.3,415.1,2184.4,232.8,3032.0,350.7,838.5,2173,3022.9,165.2,79,7.8
0.045018,860.8,388.9,2180.4,227.8,3027.6,318.9,843.3,2182.4,3028.7,164.9,79.2,8.9
0.047018,848.3,370.1,2180.9,229.2,3025.5,297.8,848.6,2191.3,3033.8,164.7,79.3,9.8
0.049018,841.0,359.5,2186.5,237.1,3027.0,289.0,854.4,2199.6,3038.1,164.5,79.4,10.4
0.051018,837.6,354.5,2194.7,247.3,3030.5,286.5,860.7,2207.1,3041.7,164.2,79.5,11
0.053018,837.8,356.5,2202.3,256.2,3033.7,285.9,867.4,2213.6,3044.3,164,79.5,11.5
0.055018,842.7,369.2,2208.7,265.7,3035.6,288.5,874.4,2219.1,3046,163.8,79.4,12
0.057018,853.4,391.3,2215.0,276.7,3036.9,295.4,881.7,2223.6,3047,163.6,79.3,12.6
0.059018,867.8,414.9,2221.1,284.5,3038.8,304.7,889.2,2227,3047.1,163.4,79.2,13.4
0.061018,884.4,436.6,2226.1,286.8,3042.1,314.7,896.7,2229.5,3046.7,163.2,79,14.5
0.063018,901.6,455.9,2229.2,285.0,3046.0,321.9,904.2,2231.2,3045.8,163,78.8,15.5
0.065018,915.8,470.5,2230.6,281.1,3048.0,319.7,911.6,2232.1,3044.6,162.8,78.7,16.3
0.067018,925.3,479.7,2231.3,277.4,3047.0,308.5,918.8,2232.4,3043.3,162.6,78.7,16.6
0.069018,932.0,484.7,2232.1,273.7,3045.2,294.6,925.6,2232.3,3042.1,162.4,78.7,16.3
0.071018,937.2,486.3,2232.6,267.2,3045.0,283.7,932,2232.1,3041.2,162.2,78.7,15.5
0.073018,941.5,487.0,2232.7,258.6,3047.0,279.3,937.9,2231.7,3040.7,162.1,78.7,14.4
0.075018,945.7,487.8,2233.4,250.9,3049.9,279.9,943.2,2231.5,3040.8,161.9,78.7,13.6
0.077018,950.2,486.9,2234.5,244.1,3051.4,280.7,947.9,2231.5,3041.5,161.7,78.7,13.2
0.079018,955.6,483.5,2235.5,237.6,3050.2,279.9,952,2231.8,3042.8,161.5,78.7,13.5
0.081018,962.0,476.1,2236.5,231.8,3047.5,279.3,955.4,2232.7,3044.9,161.4,78.6,14.4
0.083018,967.1,464.4,2237.9,226.9,3046.1,281.7,958.1,2234,3047.5,161.2,78.6,15.3
0.085018,969.3,451.7,2239.7,223.5,3048.7,290.9,960.2,2235.9,3050.7,161.1,78.5,16.2
0.087018,969.1,441.1,2241.7,222.7,3055.0,308.3,961.7,2238.3,3054.2,160.9,78.5,16.4
0.089018,967.2,431.6,2244.3,222.9,3062.2,327.8,962.6,2241.2,3058,160.7,78.4,15.9
0.091018,964.0,421.5,2247.1,224.3,3067.0,345.2,962.9,2244.6,3061.8,160.6,78.3,14.9
0.093018,961.0,412.8,2250.4,230.4,3068.0,361.8,962.8,2248.3,3065.4,160.4,78.3,13.7
0.095018,958.8,408.2,2253.9,239.5,3065.8,374.3,962.2,2252.2,3068.6,160.3,78.2,12.7
0.097018,956.8,409.3,2256.6,244.4,3063.1,378.1,961.3,2256.2,3071.2,160.1,78.2,12.3
0.099018,955.2,418.6,2257.9,242.4,3062.1,375.4,959.9,2260.3,3073,160,78.2,12.8
0.101018,953.7,434.5,2259.1,237.4,3061.7,371.1,958.3,2264.3,3073.9,159.8,78.2,13.9
0.103018,950.8,451.7,2262.0,234.5,3060.3,369.8,956.3,2268,3073.6,159.7,78.1,15.2
0.105018,946.8,468.6,2267.2,236.5,3059.2,375.6,954,2271.5,3072.2,159.5,78.1,16.5
0.107018,943.7,487.7,2273.1,240.7,3059.7,385.9,951.4,2274.6,3069.6,159.4,78,17.3
0.109018,943.0,513.5,2276.8,242.7,3060.1,392.9,948.5,2277.2,3065.7,159.2,77.9,17.6
0.111018,944.8,551.6,2277.3,243.7,3058.0,394.8,945.2,2279.4,3060.6,159.1,77.8,17.6
0.113018,947.0,597.5,2276.4,246.3,3054.0,392.8,941.5,2281.2,3054.4,158.9,77.7,17.5
0.115018,945.3,633.3,2276.4,249.5,3050.4,383.0,937.4,2282.5,3047.2,158.8,77.6,17.3
0.117018,938.9,648.4,2278.3,253.2,3047.6,364.1,932.9,2283.4,3039.2,158.6,77.5,17.2
0.119018,930.8,647.7,2281.8,257.0,3044.3,340.2,927.8,2284,3030.6,158.5,77.5,17.3
0.121018,922.8,635.4,2286.1,255.1,3039.8,315.2,922.3,2284.3,3021.6,158.3,77.5,17.5
0.123018,914.8,609.7,2290.4,243.3,3033.4,290.7,916.2,2284.4,3012.4,158.2,77.5,17.6
0.125018,906.8,572.9,2293.2,224.7,3025.4,269.3,909.6,2284.4,3003.2,158.1,77.5,17.7
0.127018,898.5,530.8,2293.6,204.9,3016.0,253.4,902.5,2284.3,2994.2,157.9,77.5,17.4
0.129018,890.3,486.0,2292.0,188.1,3004.3,244.8,894.9,2284.3,2985.6,157.8,77.5,16.8
0.131018,883.2,444.4,2289.7,175.6,2989.7,244.7,886.8,2284.4,2977.6,157.6,77.6,15.9
0.133018,877.4,414.3,2288.0,165.1,2973.6,249.9,878.5,2284.7,2970.2,157.5,77.6,14.9
0.135018,871.7,396.0,2286.9,153.9,2957.0,254.7,869.9,2285.1,2963.7,157.3,77.6,14
0.137018,865.7,383.1,2285.5,142.0,2939.4,254.8,861.1,2285.7,2957.9,157.2,77.7,13.3
0.139018,859.0,370.8,2283.1,131.3,2923.5,250.8,852.4,2286.5,2953,157.1,77.7,13
0.141018,850.8,358.3,2280.4,123.7,2911.5,249.8,843.9,2287.4,2948.9,156.9,77.8,12.9
0.143018,841.4,345.4,2279.0,120.6,2902.1,258.2,835.7,2288.5,2945.7,156.8,77.8,13
0.145018,831.8,331.7,2279.9,120.0,2895.7,274.2,827.9,2289.6,2943.1,156.7,77.9,13
0.147018,823.3,319.7,2283.1,118.0,2898.7,294.7,820.8,2290.8,2941.1,156.6,77.9,13
0.149018,816.8,313.4,2288.0,113.8,2917.0,325.7,814.5,2291.9,2939.7,156.4,77.9,12.9
0.151018,811.6,312.1,2292.7,107.8,2946.5,365.8,809.2,2292.9,2938.7,156.3,77.8,12.7
0.153018,805.9,312.4,2295.8,101.8,2972.6,400.1,804.9,2293.8,2938,156.2,77.8,12.6
0.155018,799.1,317.1,2298.3,99.2,2984.0,422.0,801.7,2294.5,2937.6,156.1,77.7,12.5
0.157018,792.2,328.9,2301.4,101.4,2979.5,435.5,799.8,2294.9,2937.4,156,77.6,12.6
0.159018,785.3,341.8,2303.0,106.3,2961.3,438.6,799.1,2295,2937.3,156,77.4,13.1
