time,f1,b1,f2,b2,f3,b3,f1p,f2p,f3p,f0,intensity,harmonicity
0.025431,414.0,91.9,2666.4,107.5,3133.0,174.8,424.1,2693.6,3136.5,192.9,71.1,0.8
0.027431,418.3,93.9,2662.8,103.3,3128.0,183.2,425.1,2693.4,3133.8,193,70.9,1.4
0.029431,423.4,94.4,2672.0,115.2,3124.6,201.4,426.6,2693.3,3129.3,193.1,70.7,2.1
0.031431,429.6,95.5,2693.7,134.9,3121.3,209.0,428.6,2693.2,3123.4,193.2,70.5,2.9
0.033431,435.1,98.2,2720.5,142.7,3122.2,191.9,431.1,2693.2,3116.1,193.3,70.4,3.7
0.035431,440.3,102.9,2736.4,127.8,3120.1,150.3,433.9,2693.5,3107.9,193.5,70.3,4.4
0.037431,444.1,107.2,2731.2,105.4,3109.8,114.2,437,2694.1,3098.9,193.6,70.2,4.9
0.039431,446.0,108.7,2716.2,88.6,3098.2,98.8,440.1,2695.2,3089.7,193.7,70.1,5.4
0.041431,447.7,108.6,2700.7,75.8,3085.9,95.7,443.3,2696.9,3080.5,193.8,70,5.9
0.043431,449.7,107.2,2691.4,69.3,3074.1,99.6,446.5,2699.2,3071.7,193.9,70,6.4
0.045431,451.3,103.9,2687.3,69.3,3062.0,106.8,449.5,2702.3,3063.5,194,70,7.1
0.047431,452.3,100.4,2687.2,74.6,3048.9,113.8,452.3,2706,3056.2,194,69.9,8
0.049431,452.7,98.4,2691.0,83.2,3035.7,121.9,454.9,2710.5,3050.1,194.1,69.9,9.1
0.051431,453.2,98.3,2700.2,93.1,3024.0,133.3,457.3,2715.5,3045.3,194.1,69.9,10.2
0.053431,455.1,100.2,2713.8,98.1,3019.4,143.3,459.5,2721.2,3041.8,194.2,69.9,11.3
0.055431,459.0,103.9,2730.5,93.6,3025.2,147.4,461.5,2727.3,3039.7,194.2,69.9,12.2
0.057431,463.1,108.0,2744.8,82.1,3039.0,144.5,463.3,2733.6,3038.9,194.1,69.9,13
0.059431,464.8,110.9,2754.0,71.3,3053.1,140.3,465.1,2740.1,3039.4,194.1,69.9,13.7
0.061431,464.1,112.8,2759.4,63.6,3063.5,137.4,466.9,2746.6,3040.9,194,69.9,14.3
0.063431,463.1,113.5,2761.9,59.7,3066.1,135.4,468.7,2752.9,3043.3,194,69.8,14.7
0.065431,464.6,113.7,2762.8,58.3,3061.1,134.0,470.6,2758.9,3046.4,193.9,69.7,14.9
0.067431,468.7,113.1,2763.0,58.8,3053.5,133.6,472.6,2764.5,3049.9,193.7,69.5,14.9
0.069431,473.9,111.8,2763.8,60.0,3050.4,132.4,474.8,2769.6,3053.5,193.6,69.3,14.7
0.071431,480.2,109.3,2765.7,61.8,3053.3,126.9,477.1,2774.2,3057.2,193.4,69.1,14.3
0.073431,486.6,105.4,2768.9,64.1,3058.3,117.6,479.5,2778.2,3060.6,193.2,68.9,13.8
0.075431,492.0,100.2,2773.8,68.7,3063.6,108.2,481.9,2781.6,3063.6,193,68.7,13.2
0.077431,494.8,96.1,2778.9,76.9,3067.5,102.6,484.3,2784.6,3066,192.8,68.6,12.5
0.079431,495.0,94.3,2781.5,88.5,3068.3,99.8,486.5,2787.2,3067.8,192.6,68.6,11.5
0.081431,493.2,94.0,2782.7,102.0,3066.3,98.5,488.5,2789.6,3069,192.3,68.6,10.6
0.083431,490.3,94.1,2786.4,111.5,3062.8,99.7,490,2791.8,3069.6,192,68.6,9.8
0.085431,486.6,93.5,2795.0,114.0,3059.8,104.6,491,2793.9,3069.5,191.7,68.7,9.3
0.087431,482.9,91.9,2804.8,108.6,3059.0,111.3,491.4,2796.1,3068.9,191.4,68.8,9.3
0.089431,480.0,89.6,2812.0,98.3,3060.6,116.2,491,2798.5,3067.9,191.1,68.9,9.7
0.091431,478.5,87.0,2816.5,85.3,3062.9,118.1,489.8,2801,3066.7,190.8,68.9,10.2
0.093431,478.7,84.8,2818.2,74.3,3063.6,117.2,487.7,2803.7,3065.3,190.5,69,10.7
0.095431,480.0,82.9,2818.3,65.7,3062.4,114.1,484.7,2806.6,3063.9,190.1,69,11.1
0.097431,481.0,81.3,2817.3,59.8,3061.2,109.0,480.9,2809.5,3062.7,189.8,69,11.3
0.099431,480.5,80.1,2815.8,56.2,3062.5,102.7,476.3,2812.4,3061.8,189.4,69,11.6
0.101431,477.7,79.4,2813.4,55.0,3067.2,95.8,470.9,2815,3061.3,189.1,69,11.8
0.103431,473.2,79.2,2810.2,57.1,3072.3,89.2,465,2817.2,3061.2,188.7,69,11.9
0.105431,467.0,78.9,2806.6,62.8,3075.4,83.0,458.6,2818.7,3061.7,188.4,69,11.6
0.107431,459.3,78.2,2804.6,71.1,3076.2,79.4,452,2819.4,3062.7,188,68.9,11
0.109431,450.3,76.5,2804.6,80.6,3075.8,79.9,445.3,2818.9,3064.2,187.7,68.9,9.9
0.111431,440.1,72.9,2803.8,92.7,3073.9,84.1,438.7,2817.2,3066.2,187.3,68.9,8.7
0.113431,430.9,67.9,2800.3,104.9,3070.6,89.7,432.4,2814.1,3068.7,187,68.8,7.7
0.115431,422.5,62.4,2796.6,111.0,3066.8,96.3,426.5,2809.4,3071.6,186.6,68.8,7.3
0.117431,415.3,57.3,2796.9,103.1,3064.3,104.1,421.2,2803.2,3074.7,186.3,68.9,7.6
0.119431,409.8,52.8,2797.8,86.8,3064.9,108.7,416.6,2795.4,3078,186,68.9,8.3
0.121431,406.4,49.5,2795.4,70.5,3069.1,106.4,412.8,2786.2,3081.4,185.6,69,9.3
0.123431,405.7,47.9,2789.5,60.5,3074.4,99.6,409.7,2775.8,3084.8,185.3,69.1,10.3
0.125431,406.7,47.2,2780.0,56.5,3077.5,93.9,407.4,2764.4,3088.2,185,69.1,11
0.127431,407.6,46.7,2767.4,57.2,3078.5,95.2,405.8,2752.4,3091.4,184.7,69.2,11.6
0.129431,407.6,46.1,2754.3,58.4,3083.0,102.5,404.9,2740,3094.3,184.4,69.3,12.1
0.131431,407.4,45.3,2741.8,56.3,3097.2,106.8,404.5,2727.8,3097,184.2,69.4,12.5
0.133431,407.8,44.6,2730.1,51.5,3115.3,98.8,404.5,2716.1,3099.4,183.9,69.5,12.7
0.135431,408.5,44.1,2717.7,47.7,3129.1,86.3,404.8,2705.3,3101.4,183.7,69.6,12.9
0.137431,408.4,43.6,2705.6,48.1,3133.6,80.3,405.3,2695.9,3103.1,183.4,69.8,12.9
0.139431,407.1,42.9,2694.0,53.4,3127.9,82.4,405.9,2688.2,3104.4,183.2,69.9,12.6
0.141431,405.3,42.5,2679.3,63.8,3112.0,89.5,406.3,2682.4,3105.3,183,70,12.3
0.143431,404.0,42.7,2659.2,75.9,3089.8,94.6,406.6,2678.9,3105.9,182.8,70.1,12
0.145431,403.1,43.1,2627.3,85.6,3063.8,91.9,406.7,2677.7,3106.1,182.6,70.1,12
