time,f1,b1,f2,b2,f3,b3,f1p,f2p,f3p,f0,intensity,harmonicity
0.025052,414.6,98.4,2542.5,301.8,3188.7,1533.0,460.3,2481.2,3100.4,238.3,71,-36.7
0.027052,438.4,96.1,2513.1,275.8,3162.0,784.0,460.1,2480.4,3099.8,238.1,72.7,4.2
0.029052,453.7,75.9,2450.3,238.4,3118.3,409.7,459.8,2479,3098.9,237.8,74.2,17.8
0.031052,460.9,55.8,2419.6,182.5,3099.7,259.5,459.5,2477.2,3097.5,237.6,75.6,20.2
0.033052,464.1,38.6,2418.6,143.5,3082.7,195.0,459,2474.9,3096,237.3,76.7,16.3
0.035052,465.1,26.8,2430.1,119.7,3064.8,164.7,458.5,2472.2,3094.2,237.1,77.7,10.9
0.037052,465.4,19.2,2443.9,102.1,3048.4,143.0,458,2469.1,3092.2,236.9,78.6,9
0.039052,465.3,14.3,2456.3,93.0,3037.9,131.0,457.5,2465.6,3090.2,236.7,79.3,10.7
0.041052,464.8,11.4,2466.3,99.2,3037.0,140.3,457.1,2462,3088.3,236.6,79.9,12.7
0.043052,464.2,9.4,2477.8,122.5,3047.8,178.2,456.7,2458.1,3086.5,236.4,80.4,14.9
0.045052,463.9,8.0,2491.9,152.3,3070.0,235.6,456.5,2454.1,3084.9,236.3,80.7,16.9
0.047052,464.2,7.1,2503.5,174.3,3098.4,284.3,456.5,2450,3083.6,236.2,81,18.8
0.049052,465.0,6.6,2502.6,186.5,3117.9,298.9,456.6,2446,3082.8,236.1,81.2,20.3
0.051052,465.9,6.4,2487.7,197.8,3116.7,300.6,457,2441.9,3082.4,236.1,81.3,21.8
0.053052,466.8,6.3,2464.2,216.4,3099.1,325.3,457.6,2438,3082.6,236.2,81.5,23.1
0.055052,467.3,6.2,2441.8,238.9,3072.4,375.8,458.4,2434.2,3083.4,236.2,81.7,24.3
0.057052,467.5,6.2,2423.7,256.1,3048.3,425.0,459.5,2430.5,3084.9,236.3,81.8,25.3
0.059052,467.6,6.4,2407.3,254.7,3043.4,432.3,460.8,2427.1,3087,236.5,82,26.3
0.061052,467.8,6.8,2392.6,233.6,3057.9,390.7,462.3,2423.9,3089.8,236.7,82.2,27.2
0.063052,468.1,7.2,2381.8,204.8,3078.0,330.8,464.1,2420.8,3093.3,237,82.3,27.9
0.065052,468.3,7.6,2378.9,182.3,3095.3,282.9,466,2418,3097.5,237.3,82.4,28.5
0.067052,468.4,7.9,2383.5,167.6,3110.1,249.6,468.1,2415.4,3102.3,237.7,82.5,28.8
0.069052,468.7,8.2,2393.8,158.6,3124.5,226.2,470.3,2413,3107.7,238.1,82.5,29
0.071052,469.3,8.3,2405.5,153.5,3139.2,209.2,472.5,2410.7,3113.6,238.6,82.6,29
0.073052,470.1,8.3,2415.3,150.8,3154.6,193.8,474.9,2408.5,3119.8,239.2,82.6,28.8
0.075052,470.9,8.1,2420.0,151.0,3166.3,181.9,477.2,2406.3,3126.4,239.8,82.7,28.4
0.077052,471.9,8.0,2419.6,154.0,3172.9,176.7,479.5,2404.2,3133.2,240.5,82.7,27.9
0.079052,473.1,7.9,2415.4,159.5,3174.9,181.6,481.7,2402.1,3140.2,241.2,82.7,27.1
0.081052,474.5,7.9,2409.7,165.5,3174.1,197.9,483.9,2399.9,3147.1,242,82.7,26
0.083052,476.4,8.0,2404.0,171.9,3171.7,229.1,485.9,2397.6,3153.9,242.9,82.7,24.8
0.085052,478.6,8.1,2398.8,179.5,3168.3,275.8,487.8,2395,3160.5,243.9,82.7,23.7
0.087052,480.9,8.3,2393.6,191.1,3163.0,340.3,489.6,2392.3,3166.9,244.9,82.7,22.7
0.089052,483.7,8.6,2388.1,207.5,3154.8,424.8,491.3,2389.3,3172.8,246,82.8,22
0.091052,486.5,9.0,2384.3,221.2,3145.5,520.4,492.8,2386,3178.2,247.1,82.8,21.4
0.093052,489.7,9.4,2382.3,223.1,3135.7,616.1,494.3,2382.4,3183,248.4,82.8,20.8
0.095052,492.8,9.8,2379.1,216.0,3128.4,650.7,495.7,2378.4,3187.3,249.7,82.9,20.3
0.097052,496.0,10.1,2373.1,211.7,3131.2,603.4,497.1,2374,3190.9,251,83,19.9
0.099052,499.1,10.3,2367.0,215.0,3147.9,530.5,498.5,2369.3,3193.7,252.4,83.2,19.5
0.101052,502.1,10.5,2361.8,223.5,3172.3,464.9,500,2364.2,3195.9,253.9,83.3,19.2
0.103052,505.1,10.5,2357.6,235.2,3197.3,418.6,501.6,2358.6,3197.5,255.4,83.4,19
0.105052,507.9,10.3,2354.6,244.1,3216.8,409.9,503.4,2352.7,3198.3,257,83.6,18.8
0.107052,510.6,10.0,2351.0,244.1,3231.3,447.2,505.5,2346.4,3198.5,258.6,83.7,18.6
0.109052,513.4,9.6,2345.0,238.1,3240.8,547.3,507.9,2339.8,3198.1,260.2,83.8,18.6
0.111052,516.1,9.3,2338.4,236.4,3242.8,719.6,510.6,2332.8,3197.2,261.8,83.8,18.7
0.113052,519.2,9.2,2332.5,240.0,3232.6,941.0,513.8,2325.4,3195.8,263.4,83.8,18.9
0.115052,522.7,9.3,2323.3,240.4,3219.9,995.9,517.4,2317.7,3194,265,83.6,18.8
0.117052,527.0,9.8,2307.5,228.5,3219.3,802.9,521.5,2309.8,3192,266.6,83.4,18.3
0.119052,532.6,10.5,2291.8,206.5,3216.6,568.8,526.1,2301.5,3189.7,268.1,83.1,17.1
0.121052,539.1,11.2,2281.7,186.6,3203.6,422.0,531.2,2292.9,3187.3,269.5,82.8,15.3
0.123052,546.7,11.9,2273.7,166.1,3180.6,332.5,536.7,2284,3184.8,270.9,82.4,13.4
0.125052,553.9,12.7,2266.0,142.4,3157.0,273.4,542.8,2274.9,3182.4,272.1,82.1,11.7
0.127052,560.3,13.6,2259.5,118.9,3141.2,225.5,549.3,2265.4,3180.1,273.2,81.9,10.9
0.129052,566.2,14.6,2255.5,102.7,3136.5,189.3,556.1,2255.7,3178,274.1,81.7,11.1
0.131052,571.5,15.5,2253.1,98.6,3140.3,173.4,563.2,2245.6,3176.2,274.8,81.6,12.1
0.133052,576.9,16.6,2248.0,105.2,3148.3,178.5,570.6,2235.3,3174.6,275.3,81.6,13.3
0.135052,581.4,17.9,2236.5,116.4,3158.1,202.1,578.1,2224.5,3173.4,275.5,81.4,14.4
0.137052,584.7,19.5,2218.4,125.6,3169.3,241.5,585.6,2213.4,3172.6,275.4,81.2,14.8
0.139052,587.1,21.7,2197.5,129.2,3179.2,299.8,593,2201.8,3172.2,275.1,80.8,14.2
0.141052,589.1,25.5,2181.2,129.7,3179.3,369.5,600.2,2189.9,3172.1,274.5,80.3,13
0.143052,592.0,32.5,2170.1,131.9,3166.3,434.2,607.1,2177.4,3172.4,273.5,79.7,11.5
0.145052,596.3,43.5,2164.7,137.9,3153.6,469.2,613.6,2164.5,3173.2,272.2,79,10.2
0.147052,601.8,58.1,2163.2,147.8,3153.2,481.4,619.5,2151.1,3174.2,270.5,78.3,9.5
0.149052,607.1,69.6,2158.2,155.4,3164.4,460.3,624.7,2137.2,3175.6,268.6,77.7,9.6
0.151052,611.4,74.2,2138.4,151.1,3183.6,387.7,629.3,2122.9,3177.3,266.2,77.3,10.2
0.153052,614.8,73.7,2102.0,128.6,3210.2,280.6,633,2108,3179.2,263.6,77,11
0.155052,617.7,71.6,2065.6,98.7,3234.7,194.8,635.8,2092.7,3181.4,260.7,76.9,11.6
0.157052,620.9,68.9,2039.3,70.5,3251.5,144.6,637.7,2076.9,3183.6,257.4,76.8,11.8
0.159052,623.5,65.4,2027.8,50.8,3258.3,130.4,638.7,2060.8,3186,254,76.8,11.1
0.161052,625.2,61.6,2025.7,38.2,3256.8,145.0,638.7,2044.3,3188.4,250.3,76.8,10
0.163052,627.1,59.0,2027.2,30.8,3243.7,192.2,637.7,2027.6,3190.9,246.4,76.6,8.7
0.165052,630.5,59.5,2028.5,27.7,3213.9,271.1,635.8,2010.8,3193.3,0,76.4,7.6
0.167052,635.8,63.8,2027.3,28.8,3164.3,373.8,633.1,1993.8,3195.6,238.3,76.1,6.9
0.169052,640.7,71.8,2020.6,35.3,3118.1,450.9,629.6,1977,3197.9,234.1,75.8,6.7
0.171052,643.2,83.5,2003.8,48.6,3098.9,468.6,625.4,1960.3,3200,229.9,75.4,6.8
0.173052,643.4,97.4,1971.4,67.4,3111.9,418.2,620.7,1943.9,3201.9,225.7,74.9,7.1
0.175052,643.8,105.7,1931.5,78.9,3137.4,335.5,615.5,1927.9,3203.7,221.6,74.5,7.5
0.177052,646.5,104.5,1897.3,76.8,3161.7,263.2,609.9,1912.6,3205.3,217.6,74.1,7.8
0.179052,650.4,98.3,1871.9,66.6,3184.7,211.6,604.2,1897.9,3206.8,213.7,73.8,8.2
0.181052,653.2,93.9,1853.9,55.5,3205.4,176.0,598.5,1884.2,3208.1,209.9,73.4,8.6
0.183052,652.9,95.3,1842.7,46.1,3224.3,146.9,592.9,1871.4,3209.2,206.4,73,9.1
0.185052,647.8,104.6,1838.4,40.7,3239.9,126.5,587.6,1859.8,3210.1,203,72.7,9.6
0.187052,636.4,120.2,1836.4,38.0,3251.4,115.7,582.6,1849.4,3210.9,199.9,72.4,9.9
0.189052,619.2,135.7,1834.1,36.8,3255.2,117.3,578.2,1840.5,3211.5,196.9,72.2,10.1
0.191052,594.8,150.3,1831.6,36.4,3250.2,131.7,574.4,1833,3212,194.3,72.2,10.1
0.193052,559.4,163.7,1830.3,37.2,3236.4,160.8,571.4,1827.1,3212.4,191.8,72.1,10.1
0.195052,515.7,171.0,1831.6,39.3,3219.3,199.8,569.1,1822.8,3212.7,189.6,72.1,10.3
0.197052,461.6,163.1,1836.5,43.3,3205.6,245.3,567.8,1820.2,3212.8,187.6,71.9,10.6
0.199052,410.8,128.1,1844.1,48.9,3198.2,288.8,567.3,1819.3,3212.9,185.8,71.7,11.3
