time,f1,b1,f2,b2,f3,b3,f1p,f2p,f3p,f0,intensity,harmonicity
0.025982,424.9,52.8,2827.8,109.6,3261.0,159.3,429.4,2899.6,3371.7,181.4,75.9,15.5
0.027982,424.0,53.2,2851.6,98.4,3308.8,151.6,429.4,2899.6,3371.9,181.4,75.9,15.1
0.029982,424.1,53.5,2873.4,87.8,3348.4,143.6,429.3,2899.5,3372.4,181.4,76,15.3
0.031982,424.5,53.4,2888.2,76.6,3379.5,139.6,429.2,2899.4,3373,181.5,76,15.6
0.033982,424.9,53.0,2894.9,68.4,3401.5,140.7,429,2899.3,3373.8,181.5,76.1,16.2
0.035982,425.5,52.1,2897.3,65.0,3413.7,148.1,428.8,2899.2,3374.7,181.5,76.1,16.8
0.037982,426.5,50.8,2899.2,65.0,3415.9,164.7,428.6,2899,3375.7,181.6,76.1,17.4
0.039982,427.6,49.2,2901.9,66.0,3409.5,187.9,428.4,2898.8,3376.9,181.6,76.1,18.1
0.041982,428.5,47.7,2904.7,66.4,3397.2,214.2,428.1,2898.7,3378.2,181.6,76.2,18.8
0.043982,429.0,46.6,2907.0,66.0,3382.3,239.3,427.8,2898.5,3379.6,181.6,76.2,19.5
0.045982,429.1,45.8,2908.2,64.8,3369.1,262.0,427.6,2898.4,3381,181.6,76.2,20.3
0.047982,429.0,45.4,2908.6,62.7,3360.4,283.8,427.2,2898.3,3382.5,181.6,76.2,21.1
0.049982,428.9,45.4,2909.0,60.3,3358.2,303.1,426.9,2898.3,3384,181.6,76.2,22
0.051982,429.1,45.5,2910.2,57.8,3361.6,320.9,426.6,2898.2,3385.6,181.7,76.2,23.1
0.053982,429.5,45.7,2912.2,55.2,3369.7,338.5,426.3,2898.3,3387.1,181.6,76.2,24.2
0.055982,430.0,46.0,2914.1,52.4,3381.0,356.8,425.9,2898.3,3388.6,181.6,76.2,25.1
0.057982,430.6,46.4,2914.7,49.6,3394.0,377.9,425.6,2898.5,3390,181.6,76.2,25.5
0.059982,430.9,46.8,2914.1,47.7,3405.3,401.9,425.3,2898.7,3391.3,181.6,76.1,25.3
0.061982,430.7,47.4,2913.1,46.5,3413.3,429.6,424.9,2899,3392.6,181.6,76.1,24.5
0.063982,430.1,48.0,2912.5,46.0,3417.6,458.3,424.6,2899.3,3393.7,181.5,76,23.6
0.065982,429.2,48.7,2912.3,46.0,3419.7,484.9,424.3,2899.7,3394.7,181.5,76,22.8
0.067982,428.3,49.4,2912.0,46.7,3421.2,507.8,423.9,2900.2,3395.5,181.5,75.9,22.5
0.069982,427.8,49.8,2911.6,48.1,3421.9,523.6,423.6,2900.7,3396.2,181.4,75.9,22.9
0.071982,427.1,50.1,2911.0,50.3,3420.3,532.4,423.2,2901.3,3396.6,181.4,75.9,24
0.073982,426.1,50.4,2910.6,52.5,3416.0,535.4,422.8,2901.9,3396.9,181.3,75.9,25.1
0.075982,424.7,50.7,2910.8,54.3,3411.1,533.3,422.5,2902.6,3397,181.2,75.9,25.9
0.077982,423.1,51.1,2911.9,55.6,3408.5,525.1,422.1,2903.3,3396.8,181.2,75.9,25.9
0.079982,421.6,51.4,2913.8,56.8,3409.0,511.5,421.6,2903.9,3396.4,181.1,75.9,24.7
0.081982,420.2,51.6,2916.2,58.5,3408.6,494.7,421.2,2904.6,3395.8,181,76,22.5
0.083982,418.9,51.6,2918.5,61.2,3404.0,477.0,420.7,2905.2,3395,180.9,76,20.1
0.085982,417.8,51.5,2919.9,64.9,3395.8,458.0,420.2,2905.7,3393.9,180.8,76,18.1
0.087982,416.7,51.5,2920.3,69.5,3387.0,437.0,419.6,2906.2,3392.5,180.7,76,17
0.089982,415.7,51.6,2919.6,73.5,3381.9,417.5,419,2906.5,3391,180.6,76,17.2
0.091982,414.9,51.7,2917.4,76.5,3380.2,398.8,418.3,2906.7,3389.2,180.5,76,18.3
0.093982,414.5,52.0,2913.6,77.9,3380.6,381.7,417.6,2906.7,3387.2,180.4,76,19.9
0.095982,414.3,52.3,2908.9,76.7,3382.8,368.7,416.8,2906.6,3384.9,180.3,76,21.3
0.097982,413.7,52.6,2903.7,73.3,3386.8,359.9,415.9,2906.1,3382.5,180.2,76,22
0.099982,412.7,52.7,2898.8,69.7,3391.2,354.7,415,2905.4,3379.8,180.1,76.1,22
0.101982,411.4,52.6,2894.2,67.4,3394.7,352.0,414,2904.4,3377,180,76.1,21.5
0.103982,409.8,52.1,2889.7,67.6,3396.3,351.7,412.9,2903,3373.9,179.9,76.1,20.9
0.105982,408.1,51.3,2885.8,70.0,3393.6,352.4,411.7,2901.3,3370.7,179.8,76.1,20.2
0.107982,406.2,50.3,2882.2,73.9,3384.1,351.0,410.5,2899.1,3367.4,179.6,76.2,19.8
0.109982,404.3,49.4,2878.0,77.0,3370.1,344.6,409.2,2896.5,3363.8,179.5,76.2,19.8
0.111982,402.4,48.3,2872.3,77.9,3355.5,333.5,407.9,2893.5,3360.2,179.4,76.3,19.9
0.113982,400.7,47.2,2865.2,76.4,3343.3,320.8,406.5,2889.9,3356.4,179.3,76.3,20.1
0.115982,399.3,46.0,2858.5,74.0,3334.0,309.7,405.1,2885.7,3352.4,179.1,76.4,20.3
0.117982,398.2,45.0,2853.2,71.7,3325.5,301.1,403.7,2881.1,3348.4,179,76.4,20.3
0.119982,397.4,44.2,2849.5,70.4,3316.5,294.3,402.2,2875.8,3344.2,178.9,76.5,20.2
0.121982,396.7,43.4,2845.5,70.0,3305.4,288.2,400.7,2869.9,3339.9,178.8,76.5,19.9
0.123982,396.2,42.7,2840.1,70.3,3292.4,283.3,399.3,2863.4,3335.5,178.6,76.6,19.6
0.125982,395.9,42.2,2833.4,70.7,3279.6,279.9,397.9,2856.2,3331,178.5,76.6,19.4
0.127982,395.9,41.7,2826.0,70.7,3268.8,278.7,396.6,2848.4,3326.4,178.4,76.6,19.3
0.129982,395.9,41.3,2819.5,70.1,3262.0,278.8,395.3,2840,3321.7,178.2,76.6,19.6
0.131982,395.7,40.8,2813.4,69.2,3258.5,276.2,394.2,2830.8,3316.8,178.1,76.7,20.1
0.133982,395.3,40.1,2807.7,68.3,3258.8,268.8,393.1,2821,3311.9,177.9,76.7,20.7
0.135982,395.0,39.4,2802.2,67.3,3263.3,257.9,392.3,2810.5,3306.8,177.8,76.7,21
0.137982,394.8,38.7,2796.5,66.0,3270.6,247.2,391.6,2799.4,3301.6,177.7,76.7,20.9
0.139982,395.2,38.5,2790.9,64.6,3277.7,242.3,391.1,2787.6,3296.2,177.5,76.7,20.1
0.141982,396.0,38.5,2784.7,63.6,3283.7,244.3,390.9,2775.2,3290.7,177.4,76.8,18.9
0.143982,397.0,38.4,2778.2,63.0,3289.7,250.1,390.9,2762.2,3285.1,177.2,76.8,17.4
0.145982,398.0,38.3,2772.5,63.2,3297.0,254.8,391.2,2748.6,3279.2,177.1,76.8,16.1
0.147982,399.3,38.1,2766.5,64.7,3306.0,256.9,391.8,2734.4,3273.1,177,76.8,15.1
0.149982,401.0,38.2,2759.3,67.5,3313.9,260.3,392.7,2719.8,3266.9,176.8,76.9,14.8
0.151982,403.3,38.5,2749.4,71.9,3319.9,272.2,394.1,2704.6,3260.4,176.7,76.9,14.7
0.153982,406.0,38.9,2735.9,78.7,3323.9,298.2,395.7,2689,3253.7,176.6,76.9,14.8
0.155982,408.9,39.3,2718.0,87.0,3325.6,338.8,397.8,2672.9,3246.7,176.4,76.9,14.9
0.157982,412.4,39.9,2694.2,94.7,3323.7,391.7,400.3,2656.5,3239.4,176.3,76.9,14.8
0.159982,416.0,40.8,2668.1,96.8,3313.4,437.7,403.3,2639.8,3231.9,176.2,77,14.6
0.161982,419.8,42.3,2642.4,91.7,3293.5,450.6,406.6,2622.8,3224.1,176,77,14.4
0.163982,423.6,44.2,2619.2,82.6,3275.0,431.8,410.5,2605.6,3216,175.9,77,14.1
0.165982,427.3,46.6,2598.9,74.3,3259.0,407.8,414.7,2588.2,3207.5,175.8,77.1,13.7
0.167982,430.8,49.2,2580.0,69.6,3238.9,391.6,419.5,2570.8,3198.8,175.7,77.1,13.1
0.169982,434.1,51.9,2562.3,69.4,3213.2,383.5,424.6,2553.2,3189.7,175.5,77.1,12.3
0.171982,437.4,54.4,2542.4,71.9,3184.7,376.0,430.2,2535.7,3180.4,175.4,77.1,11.1
0.173982,440.2,56.7,2519.6,75.1,3158.5,367.7,436.3,2518.2,3170.7,175.3,77.1,10
0.175982,442.4,59.1,2494.5,76.9,3135.8,356.0,442.7,2500.8,3160.7,175.2,77.1,9
0.177982,444.2,62.7,2468.8,75.1,3117.6,337.6,449.6,2483.6,3150.3,175.1,77.1,8.5
0.179982,445.8,67.8,2448.1,70.4,3104.6,320.9,456.8,2466.6,3139.7,174.9,77,8.6
0.181982,447.7,75.1,2431.1,66.1,3092.0,312.1,464.3,2449.9,3128.8,174.8,76.9,9.1
0.183982,450.2,84.0,2416.7,64.9,3078.7,313.3,472.2,2433.4,3117.6,174.7,76.8,9.8
0.185982,453.4,93.6,2403.4,68.2,3065.3,325.7,480.3,2417.4,3106.2,174.6,76.7,10.5
0.187982,457.6,103.1,2387.9,77.0,3051.6,349.3,488.7,2401.7,3094.6,174.5,76.5,11.1
0.189982,462.7,111.7,2369.6,88.0,3040.5,371.7,497.2,2386.5,3082.7,174.3,76.4,11.6
0.191982,469.1,121.1,2349.0,96.2,3031.3,375.7,505.9,2371.8,3070.7,174.2,76.3,12
0.193982,477.2,133.1,2328.8,98.6,3021.6,352.0,514.7,2357.7,3058.6,174.1,76.2,12.5
0.195982,487.2,147.7,2311.9,96.0,3014.3,313.9,523.5,2344.1,3046.3,174,76.1,12.9
0.197982,499.3,165.2,2298.9,91.4,3010.1,277.4,532.3,2331.1,3034,173.9,76,13.2
0.199982,512.0,183.9,2290.2,88.1,3006.0,252.6,541,2318.7,3021.7,173.8,75.9,13.4
0.201982,525.6,203.2,2283.8,87.1,2998.6,237.0,549.6,2306.9,3009.4,173.6,75.8,13.5
0.203982,540.5,222.0,2279.5,88.9,2987.4,227.5,558,2295.8,2997.1,173.5,75.7,13.6
0.205982,556.7,239.9,2277.0,92.9,2973.1,219.7,566.1,2285.4,2985,173.4,75.6,13.6
0.207982,575.0,257.6,2275.0,97.6,2957.2,209.7,573.9,2275.7,2973,173.3,75.5,13.6
0.209982,593.3,274.3,2272.5,100.9,2944.2,197.8,581.4,2266.7,2961.1,173.2,75.4,13.6
0.211982,611.5,291.6,2269.0,103.3,2935.4,186.3,588.5,2258.3,2949.6,173.2,75.3,13.6
0.213982,628.5,307.8,2264.0,105.2,2931.7,178.4,595.1,2250.7,2938.3,173.1,75.2,13.5
0.215982,643.3,322.0,2257.6,107.2,2931.7,175.9,601.2,2243.7,2927.3,173,75.1,13.5
0.217982,655.8,336.8,2249.9,109.1,2931.5,177.0,606.7,2237.5,2916.7,172.9,75,13.7
0.219982,664.3,353.4,2242.3,110.1,2927.6,177.6,611.6,2231.9,2906.5,172.9,74.9,14
0.221982,669.9,376.8,2235.3,110.4,2919.5,175.4,615.9,2227,2896.7,172.8,74.9,14.5
0.223982,673.0,409.5,2229.4,111.3,2908.6,171.5,619.5,2222.7,2887.4,172.8,74.9,15.1
0.225982,672.4,447.1,2224.1,113.8,2897.1,167.6,622.4,2219.1,2878.6,172.8,74.9,15.6
0.227982,666.9,484.7,2219.4,117.7,2885.6,164.0,624.5,2216.1,2870.4,172.7,75,16
0.229982,658.9,516.4,2216.4,119.9,2876.4,159.9,625.9,2213.6,2862.7,172.7,75.1,16.2
0.231982,650.3,543.9,2215.1,119.2,2869.0,154.6,626.5,2211.7,2855.6,172.7,75.1,16.3
0.233982,641.9,569.0,2215.2,116.9,2862.3,149.8,626.4,2210.3,2849.1,172.7,75.1,16.3
0.235982,633.6,592.6,2216.3,114.3,2855.8,146.8,625.5,2209.5,2843.2,172.7,75.1,16.2
0.237982,624.8,612.8,2217.8,111.1,2850.1,145.8,623.8,2209.1,2837.9,172.8,75.1,16
0.239982,615.6,623.2,2219.3,108.1,2845.9,148.0,621.3,2209.1,2833.3,172.8,75,15.4
0.241982,604.5,616.6,2220.4,106.6,2842.4,153.3,618.2,2209.5,2829.3,172.8,74.9,14.6
0.243982,591.7,585.7,2220.1,106.8,2838.7,160.1,614.3,2210.3,2825.9,172.9,74.8,13.8
0.245982,579.6,536.5,2219.0,107.8,2835.1,167.2,609.7,2211.5,2823.1,173,74.7,13.1
0.247982,569.5,476.6,2218.3,108.2,2832.8,173.7,604.5,2212.9,2820.9,173,74.6,12.7
0.249982,561.7,417.3,2219.0,106.5,2833.7,178.7,598.7,2214.6,2819.2,173.1,74.5,12.7
0.251982,555.1,361.5,2221.9,103.9,2837.6,183.7,592.3,2216.5,2818.2,173.2,74.4,13.1
0.253982,549.5,311.9,2226.1,100.8,2841.4,189.4,585.4,2218.7,2817.6,173.3,74.4,13.6
0.255982,543.9,268.3,2228.9,95.9,2841.5,195.4,578.1,2221,2817.5,173.4,74.4,14.1
0.257982,537.2,230.5,2228.2,88.2,2836.1,201.6,570.4,2223.4,2817.9,173.5,74.5,14.3
0.259982,530.2,200.7,2225.4,80.3,2826.7,206.9,562.4,2225.9,2818.7,173.7,74.6,14.4
0.261982,523.3,173.5,2222.8,73.6,2815.0,210.9,554.2,2228.6,2819.9,173.8,74.7,14.5
0.263982,516.9,149.4,2221.9,68.5,2802.4,214.3,545.8,2231.2,2821.4,173.9,74.9,14.4
0.265982,511.3,129.2,2223.3,63.9,2792.1,217.4,537.3,2233.9,2823.1,174,75,14.2
0.267982,506.9,110.4,2226.5,58.9,2786.4,220.5,528.7,2236.5,2825.2,174.2,75.2,13.7
0.269982,504.6,94.0,2230.3,55.0,2785.9,222.8,520.2,2239.2,2827.4,174.3,75.4,12.9
0.271982,504.3,79.0,2234.3,53.4,2789.2,222.9,511.9,2241.7,2829.7,174.5,75.6,11.9
0.273982,505.2,65.4,2239.0,54.6,2795.3,220.7,503.7,2244.2,2832.1,174.6,75.8,10.7
0.275982,505.6,54.0,2245.7,58.0,2803.9,218.3,495.8,2246.6,2834.6,174.7,76,9.6
0.277982,504.7,44.7,2254.7,60.8,2815.9,216.4,488.3,2248.9,2837.1,174.9,76.2,8.7
0.279982,502.7,38.2,2262.6,60.4,2829.6,215.6,481.1,2251,2839.5,175,76.3,8.2
0.281982,500.0,34.0,2267.0,57.8,2843.2,216.9,474.5,2253,2841.9,175.1,76.4,7.9
0.283982,496.8,32.0,2266.6,55.9,2855.7,222.5,468.3,2254.8,2844.1,175.3,76.4,7.7
0.285982,492.5,32.3,2262.6,56.6,2869.0,233.9,462.8,2256.4,2846.1,175.4,76.5,7.5
0.287982,485.5,34.6,2256.3,60.9,2881.1,250.2,457.9,2257.8,2848,175.5,76.4,7.3
0.289982,476.6,37.9,2250.3,67.8,2881.9,268.4,453.6,2259.1,2849.6,175.6,76.3,7.1
0.291982,466.5,41.5,2246.3,75.4,2870.6,284.5,450.1,2260.1,2850.9,175.7,76.2,6.8
0.293982,456.7,44.0,2246.0,80.7,2857.2,291.7,447.3,2260.9,2852,175.8,76,6.5
0.295982,448.4,44.9,2249.6,83.2,2849.9,291.3,445.3,2261.5,2852.8,175.9,75.9,6.5
0.297982,440.8,45.4,2257.3,84.4,2847.0,289.0,444.1,2261.8,2853.3,176,75.6,6.9
0.299982,432.9,46.6,2265.9,85.9,2843.0,289.3,443.7,2261.9,2853.4,176.1,75.4,8.2
