time,f1,b1,f2,b2,f3,b3,f1p,f2p,f3p,f0,intensity,harmonicity
0.025288,309.6,146.4,2017.3,508.8,2416.1,1715.4,470.3,2029,2820.9,236.1,76,42.8
0.027288,307.2,145.0,2020.8,482.9,2513.2,1891.5,470.7,2029.1,2821.6,236.2,76,43.5
0.029288,304.9,143.6,2013.5,431.6,2724.9,2221.4,471.4,2029.4,2822.8,236.3,76.1,43.8
0.031288,307.4,145.0,1997.1,417.4,2617.2,2599.0,472.4,2029.7,2824.4,236.4,76.1,43.5
0.033288,317.1,149.3,1955.2,452.9,2742.7,1576.5,473.7,2030.1,2826.4,236.5,76.1,42.9
0.035288,318.0,153.6,1979.7,437.8,2892.9,998.5,475.2,2030.6,2828.9,236.6,76.2,41.7
0.037288,319.0,158.7,2041.2,402.9,2921.5,779.1,477,2031.2,2831.8,236.6,76.4,39.5
0.039288,343.2,170.3,2064.0,366.2,2900.5,646.0,479.1,2031.9,2835.2,236.6,76.6,35.9
0.041288,392.0,168.7,2062.0,331.0,2866.9,515.2,481.4,2032.6,2839,236.6,76.9,30
0.043288,438.8,140.6,2046.7,295.0,2836.6,397.9,484,2033.4,2843.1,236.6,77.2,23.1
0.045288,473.1,108.3,2025.7,255.6,2816.3,303.0,486.8,2034.3,2847.7,236.5,77.5,16.3
0.047288,497.7,85.2,2004.7,217.8,2813.4,238.2,489.9,2035.3,2852.6,236.5,77.7,10.8
0.049288,515.0,74.1,1990.0,192.2,2836.1,207.3,493.2,2036.3,2857.8,236.4,77.7,7.7
0.051288,529.7,72.0,1982.9,179.3,2889.7,191.3,496.7,2037.3,2863.4,236.2,77.7,6.5
0.053288,542.9,77.5,1984.3,182.2,2948.5,172.2,500.5,2038.5,2869.3,236.1,77.6,6.6
0.055288,557.1,88.4,1995.4,201.5,2985.3,152.5,504.4,2039.6,2875.5,235.9,77.4,7.3
0.057288,574.6,100.1,2016.4,226.2,3000.3,139.4,508.6,2040.8,2882,235.7,77.1,8.4
0.059288,592.6,106.9,2038.5,238.5,3005.1,131.8,512.9,2042,2888.7,235.5,76.9,9.4
0.061288,609.6,109.9,2057.0,238.6,3007.4,125.4,517.4,2043.3,2895.7,235.3,76.8,10.9
0.063288,622.0,109.2,2069.6,234.0,3008.6,119.2,522,2044.5,2902.8,235,76.6,12.9
0.065288,629.8,105.3,2078.0,229.7,3009.3,113.3,526.8,2045.8,2910.1,234.8,76.5,14.9
0.067288,634.1,99.1,2082.7,223.7,3010.4,107.2,531.8,2047.1,2917.6,234.5,76.5,16.6
0.069288,637.0,92.6,2083.5,211.9,3012.1,100.1,536.9,2048.3,2925.2,234.2,76.4,17.8
0.071288,640.6,86.1,2081.6,193.4,3013.7,90.9,542,2049.6,2933,234,76.2,18.5
0.073288,644.7,80.3,2079.1,174.7,3015.0,82.5,547.3,2050.8,2940.7,233.7,76.1,18.9
0.075288,648.9,74.8,2077.3,158.3,3016.1,76.8,552.7,2052,2948.6,233.5,76,19.2
0.077288,652.6,69.2,2076.6,145.2,3017.0,75.0,558.1,2053.2,2956.5,233.2,76,19.5
0.079288,655.4,64.3,2076.5,137.8,3017.2,77.3,563.6,2054.3,2964.3,232.9,75.9,19.7
0.081288,657.8,60.5,2076.6,137.3,3016.9,83.2,569.2,2055.4,2972.2,232.7,75.9,20
0.083288,659.4,58.5,2077.0,146.0,3017.5,92.0,574.7,2056.4,2979.9,232.4,76,20.1
0.085288,659.8,58.1,2078.8,165.7,3020.4,103.0,580.3,2057.4,2987.6,232.2,76.1,20.2
0.087288,659.6,58.6,2083.5,195.2,3025.1,112.9,585.9,2058.3,2995.2,232,76.2,20.3
0.089288,659.9,59.1,2090.5,224.3,3028.5,117.7,591.5,2059.1,3002.7,231.7,76.3,20.4
0.091288,661.2,59.3,2097.3,248.6,3030.1,119.7,597.1,2059.9,3010,231.5,76.4,20.3
0.093288,662.7,58.8,2098.9,266.6,3029.7,122.1,602.6,2060.5,3017.1,231.3,76.5,20.2
0.095288,663.9,57.7,2093.7,281.5,3026.2,125.8,608.1,2061.1,3024.1,231.1,76.6,20.2
0.097288,664.4,56.4,2084.4,295.2,3018.5,130.1,613.5,2061.6,3030.8,230.9,76.6,20.3
0.099288,664.5,55.5,2078.2,303.9,3011.0,133.4,618.9,2062.1,3037.3,230.7,76.7,20.6
0.101288,664.7,55.0,2079.3,301.9,3009.7,135.4,624.1,2062.4,3043.5,230.5,76.7,21.2
0.103288,665.3,54.8,2085.4,290.2,3016.2,137.0,629.3,2062.6,3049.4,230.3,76.7,21.9
0.105288,666.1,54.5,2090.8,276.5,3025.4,138.6,634.3,2062.7,3055,230.1,76.7,22.6
0.107288,666.8,53.8,2092.6,266.7,3031.7,141.1,639.3,2062.8,3060.3,229.9,76.7,23.2
0.109288,667.2,52.6,2090.4,263.1,3031.6,145.9,644.1,2062.7,3065.3,229.7,76.7,23.5
0.111288,667.2,51.2,2084.7,264.3,3026.2,153.3,648.7,2062.5,3069.9,229.5,76.7,23.7
0.113288,666.8,49.9,2076.4,270.3,3022.7,158.2,653.2,2062.2,3074.2,229.3,76.6,23.7
0.115288,666.2,48.7,2064.7,279.3,3028.3,154.5,657.5,2061.8,3078,229.1,76.6,23.6
0.117288,665.6,47.7,2047.5,287.8,3042.1,141.9,661.7,2061.4,3081.5,228.9,76.6,23.6
0.119288,665.2,47.2,2028.2,289.7,3056.5,129.5,665.7,2060.8,3084.7,228.7,76.5,23.5
0.121288,664.9,47.1,2011.1,281.2,3069.7,123.1,669.4,2060.1,3087.4,228.5,76.5,23.5
0.123288,664.6,47.1,2001.9,265.0,3081.1,122.9,673,2059.3,3089.7,228.3,76.5,23.4
0.125288,664.0,47.1,2000.7,245.0,3090.4,122.7,676.4,2058.5,3091.6,228.1,76.4,23.4
0.127288,663.3,47.1,2006.3,225.5,3094.6,119.0,679.6,2057.5,3093.1,227.8,76.4,23.5
0.129288,662.7,47.1,2016.0,214.5,3092.7,116.0,682.6,2056.5,3094.1,227.6,76.3,23.8
0.131288,662.3,47.5,2028.7,216.2,3087.5,116.7,685.3,2055.3,3094.8,227.4,76.3,24.4
0.133288,661.9,48.0,2041.4,230.1,3082.8,120.3,687.8,2054.2,3095,227.1,76.2,25.1
0.135288,661.6,48.7,2051.5,251.8,3080.1,125.9,690.1,2052.9,3094.8,226.9,76.2,25.7
0.137288,661.5,49.4,2055.8,275.1,3077.3,135.7,692.2,2051.6,3094.2,226.6,76.1,26.1
0.139288,661.4,50.4,2053.9,291.2,3071.5,152.0,694,2050.2,3093.2,226.3,76,26
0.141288,660.8,51.7,2050.4,299.9,3059.8,175.9,695.6,2048.7,3091.8,226,75.9,25.5
0.143288,659.2,53.6,2050.2,309.5,3045.8,199.5,697,2047.3,3090.1,225.7,75.8,24.7
0.145288,657.0,55.7,2054.2,327.2,3035.5,214.6,698.1,2045.7,3087.9,225.4,75.7,23.9
0.147288,655.3,57.9,2061.9,349.5,3031.7,216.8,699,2044.2,3085.4,225.1,75.5,23.3
0.149288,654.9,60.0,2070.2,370.9,3035.8,209.3,699.7,2042.6,3082.5,224.8,75.4,23
0.151288,655.6,62.1,2074.5,394.9,3047.6,195.1,700.1,2041,3079.3,224.5,75.2,23.1
0.153288,656.4,64.3,2067.2,424.4,3061.3,179.6,700.4,2039.4,3075.7,224.2,75,23.3
0.155288,656.1,67.3,2045.7,455.4,3070.5,169.3,700.3,2037.7,3071.9,223.9,74.9,23.6
0.157288,653.7,71.9,2022.3,468.6,3069.1,169.6,700.1,2036.1,3067.7,223.5,74.7,23.5
0.159288,649.4,77.4,2015.0,454.8,3055.3,174.8,699.7,2034.5,3063.3,223.2,74.4,23.1
0.161288,643.1,84.0,2016.0,427.3,3037.6,173.7,699,2032.9,3058.5,222.8,74.2,22.2
0.163288,635.8,90.7,2013.9,401.8,3027.4,167.6,698.2,2031.3,3053.6,222.5,73.9,21.1
0.165288,628.3,97.3,2006.9,383.5,3024.5,163.0,697.1,2029.8,3048.4,222.2,73.7,19.9
0.167288,621.4,103.7,2000.6,371.4,3026.9,159.8,695.9,2028.3,3043,221.8,73.5,19
0.169288,616.5,109.6,2002.8,360.9,3032.4,153.8,694.5,2026.8,3037.4,221.5,73.3,18.6
0.171288,613.2,115.7,2014.5,352.2,3036.9,145.9,692.9,2025.4,3031.7,221.1,73.2,18.5
0.173288,611.2,121.8,2029.7,361.8,3036.2,142.4,691.1,2024,3025.8,220.8,73.1,18.6
0.175288,610.3,128.9,2044.5,407.7,3030.0,143.8,689.2,2022.7,3019.8,220.4,73.1,18.8
0.177288,611.6,137.9,2056.4,492.0,3021.1,143.6,687.2,2021.5,3013.7,220.1,73.1,19.1
0.179288,616.4,147.2,2057.9,561.3,3015.3,135.4,684.9,2020.3,3007.5,219.7,73.1,19.4
0.181288,624.3,154.2,2044.9,580.9,3014.5,121.2,682.6,2019.3,3001.2,219.4,73.2,19.8
0.183288,631.8,156.2,2020.6,578.1,3017.1,109.6,680.2,2018.3,2995,219,73.3,20.3
0.185288,638.9,154.7,1991.2,572.7,3020.4,102.7,677.6,2017.4,2988.7,218.7,73.4,20.7
0.187288,646.6,151.8,1965.1,564.5,3022.3,103.2,675,2016.5,2982.4,218.4,73.5,21.1
0.189288,653.3,150.0,1951.6,571.3,3020.0,116.2,672.2,2015.8,2976.1,218,73.6,21.2
0.191288,656.9,152.3,1949.7,620.6,3011.2,144.2,669.4,2015.2,2969.9,217.7,73.7,21.3
0.193288,656.9,158.9,1952.8,698.2,2999.3,172.3,666.5,2014.6,2963.7,217.4,73.7,21.2
0.195288,656.0,168.1,1955.9,735.3,2990.3,188.6,663.6,2014.2,2957.7,217.1,73.7,21
0.197288,656.8,179.2,1962.9,682.8,2985.3,194.3,660.6,2013.8,2951.7,216.8,73.7,20.9
0.199288,659.7,191.4,1974.2,598.2,2983.5,193.5,657.6,2013.6,2945.9,216.5,73.7,20.7
0.201288,664.3,205.6,1988.2,530.3,2985.1,185.1,654.5,2013.5,2940.2,216.2,73.7,20.5
0.203288,671.4,218.5,1999.7,480.7,2985.3,170.8,651.5,2013.4,2934.7,215.9,73.6,20.2
0.205288,682.0,225.6,2005.8,428.5,2978.4,156.2,648.4,2013.5,2929.4,215.7,73.6,20
0.207288,692.5,224.9,2007.5,375.2,2962.4,145.8,645.4,2013.7,2924.3,215.4,73.5,20
0.209288,697.3,221.8,2008.1,340.2,2942.0,141.9,642.4,2013.9,2919.3,215.1,73.5,20.2
0.211288,695.9,220.6,2011.8,326.8,2922.4,144.4,639.4,2014.3,2914.6,214.9,73.5,20.8
0.213288,691.2,220.8,2020.2,326.0,2908.3,154.2,636.4,2014.7,2910.2,214.6,73.6,21.6
0.215288,686.7,219.4,2032.0,316.5,2897.2,169.1,633.5,2015.3,2906,214.4,73.6,22.5
0.217288,684.4,216.3,2044.6,288.3,2890.1,181.5,630.7,2015.9,2902,214.2,73.7,23.1
0.219288,683.8,215.0,2055.9,257.3,2892.8,183.5,627.9,2016.6,2898.4,214,73.8,23.5
0.221288,684.0,218.4,2066.1,235.1,2904.0,179.4,625.2,2017.4,2895,213.8,73.8,23.7
0.223288,685.7,224.5,2072.9,224.3,2914.5,177.2,622.6,2018.2,2891.9,213.6,73.9,23.7
0.225288,688.9,231.7,2076.9,220.8,2919.6,182.3,620.1,2019.2,2889.1,213.4,74,23.7
0.227288,691.6,240.9,2079.5,222.3,2917.8,197.6,617.7,2020.2,2886.6,213.2,74,23.7
0.229288,691.5,252.0,2080.7,225.8,2908.6,217.5,615.3,2021.2,2884.4,213,74.1,24
0.231288,688.3,264.9,2078.7,229.7,2892.9,232.2,613.1,2022.3,2882.5,212.8,74.2,24.4
0.233288,684.8,273.6,2073.3,228.3,2877.0,231.1,611,2023.5,2881,212.7,74.3,24.8
0.235288,684.1,273.1,2066.2,215.1,2865.3,217.2,609,2024.6,2879.7,212.5,74.4,25.3
0.237288,685.7,263.9,2059.8,191.1,2858.6,203.0,607.2,2025.9,2878.8,212.4,74.4,25.6
0.239288,686.0,254.1,2054.5,168.0,2853.9,201.5,605.5,2027.1,2878.2,212.2,74.5,25.8
0.241288,683.6,249.0,2048.2,150.7,2845.6,214.5,603.9,2028.4,2877.9,212.1,74.6,25.7
0.243288,678.0,253.9,2041.8,142.6,2835.7,234.5,602.4,2029.7,2877.9,212,74.7,25.6
0.245288,669.1,269.0,2036.6,140.7,2832.1,249.7,601.1,2031,2878.2,211.9,74.8,25.5
0.247288,658.0,289.4,2033.7,140.1,2837.8,253.1,599.9,2032.2,2878.9,211.8,74.9,25.4
0.249288,649.4,305.3,2033.9,138.0,2846.9,248.3,598.8,2033.5,2879.8,211.6,75,25.6
0.251288,644.5,314.2,2036.4,135.7,2855.5,243.7,597.9,2034.8,2881,211.5,75,26
0.253288,643.0,315.8,2038.6,135.6,2861.2,242.1,597.1,2036.1,2882.5,211.4,75.1,26.4
0.255288,642.3,312.9,2038.5,138.5,2863.5,239.9,596.4,2037.3,2884.3,211.4,75.2,26.9
0.257288,639.3,310.7,2035.2,142.0,2863.5,233.2,595.9,2038.5,2886.4,211.3,75.3,27.1
0.259288,632.8,315.0,2031.0,140.7,2863.4,226.8,595.5,2039.6,2888.7,211.2,75.4,27
0.261288,622.5,328.6,2028.7,129.5,2864.3,230.3,595.2,2040.8,2891.2,211.1,75.5,26.6
0.263288,610.5,347.5,2028.9,112.9,2865.6,249.1,595.1,2041.8,2894,211,75.5,25.9
0.265288,598.0,365.6,2030.0,98.6,2866.8,281.2,595,2042.8,2897,210.9,75.6,25.3
0.267288,585.6,378.9,2031.7,89.9,2867.7,322.4,595.1,2043.8,2900.3,210.9,75.7,24.9
0.269288,573.9,388.1,2033.5,86.8,2868.6,366.0,595.3,2044.7,2903.7,210.8,75.8,24.9
0.271288,563.3,397.6,2035.0,85.7,2871.3,412.6,595.6,2045.5,2907.3,210.7,75.9,25.4
0.273288,556.4,407.5,2036.1,83.6,2877.8,453.0,595.9,2046.3,2911.1,210.6,76,26.1
0.275288,551.9,415.7,2037.3,80.0,2887.5,483.2,596.4,2046.9,2915.1,210.5,76.1,26.9
0.277288,547.4,420.6,2039.2,76.5,2897.7,498.6,596.9,2047.5,2919.2,210.5,76.1,27.5
0.279288,541.0,424.1,2041.1,74.6,2909.4,495.8,597.5,2048.1,2923.4,210.4,76.2,27.9
0.281288,528.7,431.4,2042.9,75.2,2930.1,483.1,598.2,2048.5,2927.8,210.3,76.3,28.2
0.283288,513.8,439.0,2044.4,77.4,2950.8,469.9,598.9,2048.9,2932.3,210.2,76.4,28.4
0.285288,501.9,443.1,2045.7,80.3,2959.8,463.8,599.7,2049.1,2936.8,210.1,76.5,28.5
0.287288,494.9,446.0,2046.3,82.3,2956.3,468.3,600.5,2049.3,2941.4,210,76.5,28.6
0.289288,494.2,452.8,2044.8,81.5,2949.0,476.6,601.3,2049.4,2946.1,210,76.6,28.4
0.291288,501.2,466.8,2040.2,76.3,2945.9,479.7,602.1,2049.4,2950.9,209.9,76.7,28
0.293288,512.4,481.7,2034.6,68.2,2953.2,467.0,603,2049.4,2955.6,209.8,76.7,27.4
0.295288,523.4,492.2,2030.3,59.1,2972.5,432.6,603.8,2049.2,2960.4,209.7,76.8,26.9
0.297288,531.5,497.2,2028.3,51.2,2999.8,390.2,604.6,2049,2965.2,209.5,76.9,26.6
0.299288,537.3,495.8,2027.6,46.1,3028.7,361.2,605.5,2048.6,2970,209.4,76.9,26.6
0.301288,545.8,485.3,2027.1,43.2,3057.2,341.4,606.2,2048.2,2974.7,209.3,77,26.9
0.303288,558.2,466.8,2026.2,42.2,3074.7,325.2,607,2047.8,2979.4,209.2,77,27.4
0.305288,571.1,446.6,2025.4,42.6,3074.5,314.7,607.7,2047.2,2984.1,209.1,77.1,27.9
0.307288,578.4,437.4,2025.8,44.5,3058.6,316.4,608.3,2046.6,2988.7,208.9,77.1,28.3
0.309288,575.9,448.9,2028.4,47.8,3040.2,327.3,608.9,2045.9,2993.3,208.8,77.2,28.4
0.311288,565.1,476.1,2032.1,51.8,3030.4,334.4,609.3,2045.1,2997.7,208.7,77.2,28.3
0.313288,554.0,500.7,2034.5,55.5,3033.7,324.6,609.7,2044.3,3002.1,208.5,77.3,28
0.315288,547.4,516.1,2034.7,59.9,3043.0,303.1,610,2043.4,3006.3,208.4,77.4,27.7
0.317288,541.3,530.0,2033.8,68.3,3045.9,289.5,610.2,2042.5,3010.5,208.2,77.4,27.4
0.319288,530.1,551.0,2034.2,83.0,3033.1,303.7,610.3,2041.6,3014.5,208.1,77.5,27.2
0.321288,517.8,574.8,2037.0,105.2,3000.8,351.3,610.3,2040.5,3018.4,207.9,77.6,27.1
0.323288,520.7,586.9,2040.1,127.4,2958.4,415.2,610.1,2039.5,3022.1,207.8,77.6,27
0.325288,546.5,576.6,2040.6,138.6,2925.7,470.7,609.8,2038.4,3025.7,207.6,77.7,26.9
0.327288,586.0,536.3,2037.2,128.9,2926.5,496.0,609.3,2037.3,3029.2,207.5,77.8,26.7
0.329288,620.7,485.4,2031.5,107.6,2951.9,488.7,608.8,2036.2,3032.5,207.3,77.9,26.6
0.331288,649.2,438.5,2026.8,87.9,2977.5,465.5,608,2035.1,3035.6,207.2,78,26.3
0.333288,671.3,404.4,2025.3,75.8,2997.5,437.2,607.1,2033.9,3038.6,207,78.1,26
0.335288,689.9,381.0,2026.7,69.0,3021.8,399.0,606.1,2032.8,3041.4,206.9,78.2,25.7
0.337288,706.5,361.4,2029.4,64.9,3047.6,344.7,604.9,2031.6,3044,206.7,78.3,25.6
0.339288,718.9,336.0,2030.8,62.0,3059.5,297.8,603.5,2030.5,3046.5,206.6,78.3,25.7
0.341288,725.9,311.2,2031.4,59.5,3064.4,272.3,602,2029.3,3048.7,206.4,78.4,26.1
0.343288,726.4,300.8,2032.6,56.9,3071.5,264.7,600.3,2028.2,3050.8,206.3,78.5,26.7
0.345288,721.6,298.8,2034.4,53.3,3079.0,261.4,598.4,2027.1,3052.7,206.1,78.6,27.3
0.347288,712.9,295.5,2035.2,49.2,3081.0,250.5,596.3,2026.1,3054.4,206,78.7,27.6
0.349288,702.6,288.1,2034.2,45.9,3077.2,233.2,594.1,2025.1,3056,205.9,78.8,27.7
0.351288,691.8,280.0,2031.3,43.2,3071.1,218.6,591.7,2024.1,3057.4,205.7,78.9,27.4
0.353288,681.7,277.8,2027.7,40.4,3064.6,216.0,589.2,2023.1,3058.5,205.6,78.9,27
0.355288,670.5,288.3,2025.2,37.6,3059.7,225.2,586.5,2022.2,3059.6,205.5,79,26.5
0.357288,655.1,319.5,2024.7,35.9,3060.6,238.7,583.6,2021.3,3060.4,205.4,79.1,26.2
0.359288,634.6,368.3,2025.9,36.1,3066.4,247.9,580.6,2020.5,3061.1,205.3,79.1,26.1
0.361288,609.4,424.1,2028.3,38.4,3067.4,255.6,577.4,2019.7,3061.6,205.1,79.2,26.3
0.363288,587.4,461.7,2031.7,42.3,3055.0,265.4,574.1,2019,3062,205,79.2,26.6
0.365288,572.3,472.0,2035.6,47.8,3030.8,272.2,570.6,2018.4,3062.2,204.9,79.2,26.9
0.367288,563.5,453.0,2038.5,52.4,3005.9,265.0,567.1,2017.8,3062.2,204.8,79.3,27.2
0.369288,558.5,416.7,2037.9,51.9,2996.0,246.4,563.3,2017.2,3062.1,204.7,79.3,27.4
0.371288,554.2,380.3,2033.3,45.5,3001.7,233.8,559.5,2016.8,3061.9,204.6,79.4,27.6
0.373288,549.6,367.6,2027.4,38.8,3013.6,253.5,555.6,2016.4,3061.5,204.5,79.4,27.8
0.375288,538.0,400.4,2023.5,37.0,3028.1,343.0,551.5,2016,3061,204.4,79.4,27.9
0.377288,493.8,506.8,2023.0,43.3,3064.7,590.6,547.4,2015.7,3060.4,204.3,79.5,28.1
0.379288,373.0,581.3,2025.1,54.6,3141.0,1037.1,543.1,2015.5,3059.7,204.1,79.5,28.1
0.381288,316.8,477.0,2026.9,65.0,3186.7,1511.8,538.8,2015.3,3058.9,204,79.5,28.2
0.383288,323.3,489.7,2027.0,68.5,3147.3,1574.9,534.5,2015.2,3058,203.9,79.5,28.2
0.385288,367.3,568.2,2026.5,65.3,3115.5,1386.4,530.1,2015.1,3057,203.8,79.5,28.2
0.387288,452.9,568.2,2025.5,58.4,3096.4,1122.0,525.6,2015.1,3055.9,203.7,79.6,28.2
0.389288,508.4,501.7,2024.4,50.7,3079.7,852.7,521.2,2015.2,3054.7,203.6,79.6,28.3
0.391288,540.0,434.4,2024.2,43.6,3061.1,632.3,516.7,2015.3,3053.5,203.4,79.6,28.6
0.393288,551.6,396.0,2025.7,39.9,3051.3,528.4,512.2,2015.4,3052.2,203.3,79.6,28.9
0.395288,553.3,376.5,2027.4,39.6,3049.5,513.6,507.7,2015.6,3050.9,203.2,79.6,29.1
0.397288,554.9,353.0,2027.4,40.3,3046.2,536.3,503.2,2015.9,3049.5,203.1,79.6,29.2
0.399288,557.8,328.4,2025.2,41.1,3041.1,556.2,498.7,2016.2,3048.1,202.9,79.6,29.1
0.401288,558.3,312.8,2022.2,42.7,3031.1,550.6,494.3,2016.5,3046.7,202.8,79.6,28.8
0.403288,554.0,310.7,2020.6,45.3,3016.4,512.0,490,2016.8,3045.3,202.7,79.6,28.4
0.405288,546.9,310.6,2020.4,47.1,3003.6,466.6,485.7,2017.2,3043.8,202.5,79.6,27.8
0.407288,543.8,293.5,2020.2,46.2,2990.9,426.6,481.5,2017.6,3042.4,202.4,79.6,27.2
0.409288,547.8,258.3,2019.2,43.3,2980.5,389.9,477.4,2018,3040.9,202.3,79.6,26.3
0.411288,553.6,218.7,2018.0,40.4,2982.1,354.9,473.4,2018.5,3039.5,202.1,79.6,25.3
0.413288,556.7,190.0,2017.4,39.6,3001.2,331.3,469.5,2018.9,3038.1,202,79.6,24
0.415288,557.2,171.1,2017.7,41.4,3026.9,322.6,465.7,2019.4,3036.7,201.9,79.6,22.8
0.417288,556.4,154.5,2018.1,46.1,3040.8,332.1,462.1,2019.8,3035.3,201.7,79.6,21.6
0.419288,555.8,137.8,2017.8,52.7,3035.4,341.1,458.6,2020.3,3034,201.6,79.6,20.6
0.421288,555.2,121.2,2017.4,60.5,3025.0,313.1,455.2,2020.7,3032.8,201.5,79.6,19.6
0.423288,553.8,108.0,2017.8,68.5,3021.4,254.3,452.1,2021.2,3031.6,201.4,79.6,18.6
0.425288,550.8,98.9,2019.3,77.4,3023.0,199.3,449.1,2021.6,3030.4,201.3,79.5,17.8
0.427288,545.5,95.0,2020.9,85.6,3029.2,163.4,446.3,2022,3029.3,201.2,79.5,17.1
0.429288,537.7,97.2,2021.0,87.8,3040.3,146.1,443.6,2022.4,3028.3,201.1,79.4,16.6
0.431288,524.8,105.9,2018.6,80.5,3054.7,136.7,441.2,2022.8,3027.3,201,79.2,16.3
0.433288,504.4,120.4,2015.0,67.9,3065.2,127.4,439,2023.1,3026.5,200.9,79.1,16.1
0.435288,470.8,142.8,2011.8,55.2,3069.1,114.2,437,2023.4,3025.7,200.9,79,16
0.437288,416.1,172.3,2009.5,43.9,3067.1,99.7,435.3,2023.7,3025,200.8,78.8,16.2
0.439288,343.3,187.8,2008.2,34.6,3060.1,88.1,433.7,2024,3024.4,200.8,78.7,16.7
0.441288,269.0,147.1,2008.5,26.9,3048.2,80.1,432.4,2024.2,3023.8,200.7,78.4,17.5
0.443288,238.1,93.0,2010.5,22.2,3033.5,78.1,431.3,2024.4,3023.4,200.7,78.2,18.6
0.445288,232.0,73.8,2012.9,20.6,3016.8,85.5,430.5,2024.5,3023.1,200.6,77.9,19.7
0.447288,238.8,79.2,2014.6,22.6,2999.2,109.1,429.9,2024.6,3022.8,200.6,77.6,20.8
0.449288,251.3,91.6,2014.4,28.7,2989.2,151.7,429.5,2024.7,3022.7,200.5,77.2,21.4
0.451288,263.4,102.4,2013.1,40.4,3002.3,207.0,429.4,2024.7,3022.6,200.5,76.7,21.9
