time,f1,b1,f2,b2,f3,b3,f1p,f2p,f3p,f0,intensity,harmonicity
0.025086,491.3,135.9,2489.3,257.9,3086.7,83.1,466,2490.3,3125,185.2,79.5,15.1
0.027086,486.5,146.0,2515.7,220.5,3098.0,76.4,466.2,2492.5,3126.4,184.9,79.5,15.4
0.029086,480.1,160.8,2526.7,194.2,3108.1,72.4,466.7,2496.2,3128.6,184.7,79.5,14.9
0.031086,473.1,182.3,2527.0,173.3,3120.4,70.5,467.3,2501.2,3131.7,184.4,79.4,14
0.033086,466.5,206.1,2520.1,154.2,3136.8,69.6,468.1,2507.4,3135.6,184.1,79.3,12.9
0.035086,461.2,226.0,2511.0,137.7,3155.1,68.2,469.1,2514.9,3140.2,183.7,79.3,11.9
0.037086,457.2,240.5,2504.6,127.0,3170.0,66.9,470.3,2523.4,3145.4,183.4,79.3,11.2
0.039086,454.2,254.3,2503.5,122.2,3179.8,67.4,471.6,2532.8,3151.1,183,79.3,11
0.041086,453.4,266.9,2509.8,122.4,3183.9,70.7,473.1,2543,3157.2,182.7,79.3,11.1
0.043086,455.9,271.5,2523.6,126.6,3184.1,76.5,474.8,2553.8,3163.6,182.3,79.3,11.3
0.045086,461.3,262.2,2543.2,132.7,3182.9,84.0,476.5,2565,3170.2,181.9,79.3,11.5
0.047086,468.5,241.5,2566.2,137.3,3182.6,91.5,478.5,2576.5,3176.8,181.4,79.3,11.6
0.049086,475.9,220.1,2588.1,138.6,3183.9,97.6,480.5,2588.1,3183.4,181,79.3,11.3
0.051086,483.1,203.6,2604.2,137.9,3185.7,102.1,482.6,2599.6,3189.8,180.5,79.2,10.8
0.053086,489.0,193.2,2608.5,135.9,3186.7,104.5,484.9,2610.9,3196,180.1,79.1,10.3
0.055086,493.6,185.6,2605.8,132.6,3188.6,105.2,487.2,2621.9,3201.7,179.6,79,10.1
0.057086,497.3,178.7,2610.0,131.3,3196.0,106.0,489.5,2632.4,3207.1,179.1,78.9,10.2
0.059086,500.3,171.0,2629.8,136.0,3209.3,108.0,491.9,2642.3,3211.9,178.6,78.8,10.9
0.061086,502.9,159.2,2667.4,145.7,3224.9,113.6,494.3,2651.5,3216.1,178.1,78.8,12.2
0.063086,504.4,141.7,2710.2,150.8,3236.4,123.8,496.6,2660,3219.8,177.6,78.7,13.6
0.065086,505.0,122.8,2735.3,147.0,3239.0,135.2,499,2667.6,3222.8,177.1,78.7,14.7
0.067086,505.7,109.3,2735.0,140.8,3232.0,141.4,501.2,2674.4,3225.2,176.6,78.7,15.4
0.069086,507.3,101.5,2719.6,134.3,3222.4,139.3,503.3,2680.3,3227,176.1,78.7,15.5
0.071086,509.1,99.5,2700.3,126.6,3218.9,130.9,505.3,2685.3,3228.2,175.6,78.6,15.1
0.073086,510.6,101.6,2683.4,120.6,3220.7,122.3,507.2,2689.4,3228.8,175.1,78.6,14.5
0.075086,510.9,105.4,2671.0,121.0,3222.9,117.6,508.9,2692.7,3228.9,174.6,78.5,13.8
0.077086,510.2,108.4,2663.2,129.3,3223.0,118.0,510.4,2695.1,3228.4,174.2,78.4,13
0.079086,509.4,109.6,2659.7,141.6,3220.4,122.0,511.7,2696.8,3227.6,173.7,78.3,12
0.081086,508.8,107.9,2659.8,151.3,3214.1,128.6,512.7,2697.9,3226.4,173.2,78.3,10.7
0.083086,508.9,103.5,2663.3,152.2,3206.1,136.8,513.5,2698.2,3224.8,172.7,78.3,9.4
0.085086,509.2,97.3,2671.0,143.9,3202.3,145.4,514.1,2698,3223,172.3,78.4,8.4
0.087086,509.4,89.6,2682.4,130.0,3207.8,153.4,514.5,2697.4,3221.1,171.8,78.5,8.3
0.089086,509.5,81.4,2693.3,116.3,3218.8,159.7,514.5,2696.2,3218.9,171.4,78.6,9.2
0.091086,509.7,73.0,2699.0,106.0,3227.9,164.3,514.4,2694.7,3216.7,170.9,78.7,11.1
0.093086,510.1,65.2,2697.5,100.9,3230.3,169.1,514,2692.9,3214.4,170.5,78.9,13.3
0.095086,511.0,57.8,2692.9,99.7,3228.0,176.0,513.4,2690.8,3212.1,170.1,79.1,15.2
0.097086,512.0,50.4,2689.8,101.1,3222.4,183.0,512.7,2688.5,3209.7,169.7,79.3,16.3
0.099086,512.4,43.2,2688.5,105.5,3212.8,184.8,511.7,2685.9,3207.3,169.3,79.6,16.4
0.101086,511.9,36.6,2686.9,113.7,3199.1,179.7,510.7,2683.2,3204.9,168.9,79.9,15.7
0.103086,510.9,31.6,2686.1,122.1,3188.1,172.7,509.5,2680.3,3202.5,168.5,80.2,14.7
0.105086,509.6,28.1,2689.7,125.1,3187.3,172.6,508.2,2677.1,3199.9,168.1,80.5,13.7
0.107086,508.4,25.7,2695.6,120.9,3197.8,179.7,507,2673.7,3197.3,167.8,80.8,13.1
0.109086,507.4,24.0,2697.2,112.5,3211.6,185.5,505.7,2670.1,3194.4,167.4,81.1,12.8
0.111086,506.3,22.5,2692.3,102.8,3220.5,185.6,504.5,2666.2,3191.3,167.1,81.4,12.7
0.113086,505.3,21.3,2683.8,94.7,3219.8,182.7,503.4,2662,3187.9,166.7,81.7,12.6
0.115086,504.2,20.2,2673.1,90.5,3210.4,180.1,502.4,2657.4,3184.2,166.4,82,12.7
0.117086,503.1,19.0,2659.1,90.7,3194.8,178.3,501.5,2652.3,3180,166,82.2,12.8
0.119086,502.2,17.9,2643.3,94.4,3176.8,177.3,500.9,2646.8,3175.3,165.7,82.5,13
0.121086,501.6,17.0,2628.5,102.1,3158.5,177.2,500.5,2640.8,3170,165.4,82.8,13.5
0.123086,501.6,16.4,2617.6,114.6,3142.4,177.9,500.4,2634.1,3164.1,165,83,13.9
0.125086,502.2,16.1,2608.9,131.3,3128.9,178.3,500.5,2626.9,3157.4,164.7,83.2,14.2
0.127086,503.2,16.3,2601.1,146.2,3119.9,179.0,501,2619,3150,164.4,83.3,14.2
0.129086,504.1,17.1,2593.6,152.1,3116.6,181.0,501.9,2610.3,3141.8,164.1,83.4,13.8
0.131086,505.2,18.6,2584.8,150.6,3117.0,182.8,503,2601,3132.8,163.8,83.5,13.1
0.133086,506.3,21.1,2576.4,148.0,3116.8,181.2,504.6,2591,3122.9,163.4,83.4,12.2
0.135086,507.3,24.3,2569.8,147.7,3113.9,176.6,506.5,2580.2,3112.2,163.1,83.3,11.4
0.137086,508.1,29.0,2564.4,148.5,3108.7,171.3,508.7,2568.7,3100.7,162.8,83.1,10.6
0.139086,509.1,35.4,2557.6,147.7,3101.3,167.5,511.3,2556.5,3088.3,162.5,82.8,10
0.141086,510.5,43.8,2546.4,144.1,3089.0,165.3,514.2,2543.7,3075.1,162.2,82.5,9.3
0.143086,512.4,53.7,2532.1,138.4,3070.6,165.3,517.5,2530.3,3061.3,161.9,82.1,8.7
0.145086,514.8,64.0,2518.1,132.5,3048.2,166.8,521,2516.4,3046.7,161.6,81.7,8.3
0.147086,518.1,71.9,2505.7,129.2,3025.9,169.8,524.8,2502,3031.6,161.3,81.3,8.3
0.149086,522.2,76.4,2494.2,130.1,3006.2,175.2,528.8,2487.3,3016.1,161,80.9,8.8
0.151086,527.7,79.6,2482.9,136.1,2988.9,183.8,533,2472.3,3000.1,160.7,80.6,9.7
0.153086,534.5,83.6,2471.4,147.3,2977.1,194.4,537.3,2457.1,2983.9,160.5,80.3,10.8
0.155086,542.1,89.1,2455.8,164.4,2968.4,206.5,541.8,2441.8,2967.5,160.2,80.1,11.9
0.157086,549.6,95.0,2434.2,185.3,2957.5,215.7,546.3,2426.6,2951.1,159.9,80,12.6
0.159086,555.8,99.6,2411.8,201.0,2944.8,217.6,550.8,2411.6,2934.8,159.7,79.8,12.9
0.161086,561.0,105.1,2392.3,205.3,2932.7,217.1,555.4,2396.8,2918.8,159.4,79.7,13.1
0.163086,565.6,111.3,2377.9,199.1,2922.3,219.9,559.8,2382.4,2903.1,159.2,79.6,13.1
0.165086,569.4,113.9,2366.9,192.3,2911.2,226.9,564.1,2368.6,2888,159,79.6,13.1
0.167086,572.2,111.9,2355.5,193.5,2895.4,236.1,568.3,2355.4,2873.5,158.8,79.5,13.2
0.169086,575.0,109.1,2342.5,203.9,2873.4,244.1,572.2,2342.9,2859.8,158.6,79.4,13.5
0.171086,578.6,107.1,2329.6,220.6,2846.5,249.3,576,2331.2,2847,158.4,79.3,14
0.173086,582.5,106.7,2319.6,240.5,2819.9,252.9,579.4,2320.5,2835.2,158.2,79.1,14.4
0.175086,586.1,109.9,2311.9,263.6,2796.0,259.7,582.5,2310.9,2824.5,158,78.9,14.7
0.177086,589.0,115.4,2308.4,285.6,2780.2,275.6,585.3,2302.3,2815,157.9,78.7,14.7
0.179086,590.4,118.8,2309.8,299.7,2779.6,303.4,587.7,2295,2806.9,157.7,78.5,14.2
0.181086,590.6,117.9,2308.6,306.4,2792.2,334.5,589.6,2288.9,2800.1,157.6,78.3,13.4
0.183086,589.8,113.6,2299.0,310.3,2805.1,350.9,591.2,2284,2794.8,157.5,78,12.4
0.185086,588.2,109.5,2283.7,317.0,2808.5,355.6,592.4,2280.6,2790.9,157.4,77.7,11.5
0.187086,585.5,109.5,2261.4,330.1,2802.2,356.5,593,2278.5,2788.6,157.3,77.4,11.1
0.189086,581.7,112.7,2229.4,345.4,2787.7,349.6,593.3,2277.8,2787.8,157.2,77,11.6
