time,f1,b1,f2,b2,f3,b3,f1p,f2p,f3p,f0,intensity,harmonicity
0.025832,341.4,223.2,2465.4,481.2,3743.1,299.1,386.2,2721.6,3840.2,265.4,59.7,-168.4
0.027832,337.6,118.9,2478.5,478.8,3751.3,322.6,386,2723,3840.7,265.3,61.9,-121.8
0.029832,332.3,74.3,2534.8,521.7,3768.8,351.7,385.6,2725.3,3841.6,265.2,63.7,-70.2
0.031832,329.6,58.1,2651.7,580.7,3801.8,346.1,385.1,2728.5,3842.8,265.1,65.2,-23.6
0.033832,331.7,60.0,2801.4,512.4,3832.9,279.3,384.4,2732.6,3844.3,265,66.4,8.2
0.035832,341.3,76.4,2869.1,352.9,3841.6,220.4,383.6,2737.5,3846,265,67.4,21.7
0.037832,359.6,101.2,2876.3,248.4,3844.4,203.2,382.7,2743.1,3847.9,264.9,68.2,23.5
0.039832,383.3,122.7,2866.9,196.6,3854.9,216.4,381.7,2749.5,3849.9,264.9,68.8,18.8
0.041832,405.4,133.9,2857.5,174.0,3885.0,243.4,380.7,2756.5,3852,264.9,69.3,12.6
0.043832,420.5,138.5,2852.5,166.3,3932.4,268.7,379.7,2764,3854.1,264.9,69.9,10
0.045832,427.3,142.2,2853.5,165.6,3973.5,286.5,378.6,2772.1,3856.1,265,70.4,11.1
0.047832,427.9,146.4,2857.6,165.5,3982.0,294.9,377.5,2780.5,3857.9,265,71,12.6
0.049832,426.8,150.5,2855.8,161.1,3944.4,283.7,376.5,2789.4,3859.5,265.1,71.6,14.2
0.051832,426.7,153.0,2844.0,151.9,3883.8,244.0,375.6,2798.4,3860.8,265.2,72.1,15.7
0.053832,425.1,153.5,2829.6,141.5,3836.0,200.0,374.8,2807.7,3861.7,265.3,72.6,17
0.055832,419.9,153.4,2821.9,134.8,3809.7,176.5,374,2817,3862.1,265.5,73,18.1
0.057832,412.9,152.5,2823.6,132.6,3799.1,175.6,373.4,2826.4,3862,265.6,73.4,19.1
0.059832,407.4,150.9,2830.6,133.3,3798.5,191.9,372.9,2835.7,3861.3,265.8,73.7,20
0.061832,404.1,149.6,2838.5,135.6,3806.2,216.4,372.6,2844.9,3860,266,74,20.8
0.063832,400.8,148.9,2845.3,138.0,3822.0,238.0,372.4,2854,3858,266.3,74.2,21.7
0.065832,395.8,148.4,2850.6,137.9,3843.0,255.0,372.4,2862.8,3855.3,266.5,74.4,22.7
0.067832,389.6,147.5,2856.5,134.1,3864.6,282.4,372.6,2871.3,3851.8,266.8,74.7,23.7
0.069832,381.9,145.5,2866.7,129.0,3889.4,333.0,372.9,2879.4,3847.6,267,74.9,24.7
0.071832,372.4,140.6,2881.5,125.8,3924.4,395.4,373.3,2887.2,3842.6,267.3,75.1,25.5
0.073832,362.1,131.8,2897.4,124.5,3960.3,428.2,373.9,2894.7,3836.8,267.6,75.3,26.2
0.075832,354.6,122.2,2910.3,126.1,3978.6,441.2,374.7,2901.7,3830.2,267.8,75.5,26.5
0.077832,351.1,117.0,2918.9,133.4,3977.3,481.2,375.5,2908.2,3823,268.1,75.6,26.5
0.079832,350.1,116.5,2924.9,147.4,3942.2,570.1,376.4,2914.4,3815,268.4,75.7,26.4
0.081832,349.9,118.8,2928.6,168.0,3846.5,655.9,377.3,2920.1,3806.4,268.7,75.8,26.4
0.083832,349.3,121.3,2927.1,193.5,3733.4,640.0,378.3,2925.3,3797.1,269,75.9,26.4
0.085832,348.1,122.3,2918.6,216.7,3660.0,577.8,379.3,2930.1,3787.3,269.2,76,26.6
0.087832,347.2,122.1,2906.2,229.1,3631.1,530.3,380.3,2934.5,3777,269.5,76,26.9
0.089832,347.1,121.4,2897.7,231.0,3639.4,514.1,381.2,2938.6,3766.3,269.8,76,27.2
0.091832,347.9,120.8,2896.7,231.3,3667.8,520.1,382,2942.2,3755.2,270,76,27.5
0.093832,349.8,121.2,2900.4,235.2,3687.7,536.2,382.7,2945.5,3743.8,270.3,76,27.8
0.095832,352.7,122.9,2906.9,238.9,3686.1,555.1,383.2,2948.4,3732.3,270.5,75.9,28.1
0.097832,356.2,125.5,2916.6,236.0,3673.8,566.6,383.6,2951.1,3720.5,270.8,75.9,28.5
0.099832,360.1,128.6,2927.8,225.5,3665.0,563.2,383.8,2953.4,3708.8,271,75.8,28.8
0.101832,364.2,131.3,2936.7,210.3,3661.9,542.7,383.7,2955.5,3697,271.2,75.7,29.1
0.103832,368.5,133.7,2941.3,193.6,3658.3,513.9,383.5,2957.3,3685.3,271.5,75.7,29.3
0.105832,373.5,136.3,2944.7,176.8,3651.6,490.4,383,2958.9,3673.7,271.7,75.6,29.4
0.107832,380.0,139.8,2950.0,160.2,3642.0,477.8,382.2,2960.3,3662.3,271.9,75.5,29.3
0.109832,388.0,143.7,2957.0,144.8,3630.6,474.3,381.2,2961.4,3651.1,272.2,75.4,29.3
0.111832,396.2,146.3,2964.0,132.8,3621.3,477.6,380,2962.4,3640.2,272.4,75.3,29.2
0.113832,403.6,147.1,2970.6,125.4,3618.7,488.8,378.5,2963.1,3629.5,272.6,75.2,29.3
0.115832,409.9,145.9,2977.1,122.3,3621.3,512.0,376.8,2963.6,3619.2,272.9,75.1,29.5
0.117832,414.3,143.5,2982.9,122.0,3625.4,553.6,374.9,2963.8,3609.1,273.1,75.1,29.8
0.119832,415.4,142.1,2987.7,122.0,3634.2,620.9,372.7,2963.8,3599.4,273.4,75.1,30.1
0.121832,412.6,143.1,2992.0,120.5,3654.4,718.2,370.5,2963.6,3590,273.7,75,30.3
0.123832,407.2,145.0,2995.7,117.4,3685.1,837.9,368,2963,3580.8,274,75.1,30.3
0.125832,401.1,146.1,2998.7,114.8,3712.1,963.3,365.5,2962.1,3571.9,274.3,75.1,30.1
0.127832,395.0,145.6,3000.5,115.5,3716.2,1085.7,362.9,2960.9,3563.2,274.7,75.1,29.7
0.129832,388.2,144.0,3000.7,120.8,3686.3,1210.4,360.3,2959.3,3554.7,275,75.1,29.2
0.131832,379.2,141.2,2998.4,129.5,3620.0,1341.8,357.7,2957.2,3546.3,275.4,75.1,28.7
0.133832,367.8,136.0,2993.2,137.8,3528.3,1465.0,355.1,2954.8,3537.9,275.8,75.1,28.5
0.135832,356.1,127.5,2985.7,141.0,3447.0,1563.1,352.6,2951.8,3529.6,276.3,75.1,28.5
0.137832,346.2,117.1,2977.1,139.6,3409.0,1627.4,350.3,2948.4,3521.2,276.7,75.1,28.6
0.139832,338.6,107.0,2967.6,139.8,3410.5,1629.0,348.1,2944.4,3512.6,277.2,75.1,28.9
0.141832,332.6,98.1,2955.3,146.0,3426.0,1558.5,346.1,2939.9,3503.9,277.7,75,29
0.143832,327.4,89.4,2937.7,158.1,3440.7,1450.1,344.3,2934.8,3494.9,278.3,75,29
0.145832,322.7,80.5,2913.9,172.7,3456.6,1328.4,342.8,2929.1,3485.5,278.9,74.9,28.6
0.147832,318.9,72.1,2886.8,184.9,3474.6,1184.7,341.6,2922.9,3475.7,279.4,74.8,28
0.149832,316.3,65.2,2860.8,190.5,3485.1,1013.1,340.7,2916,3465.5,280,74.8,27.4
0.151832,314.5,60.3,2839.9,188.4,3483.0,842.7,340.1,2908.5,3454.7,280.7,74.7,26.7
0.153832,313.2,56.9,2827.2,180.9,3476.8,715.2,339.9,2900.5,3443.4,281.3,74.6,26.2
0.155832,312.2,54.4,2824.5,170.9,3476.0,652.6,340,2891.9,3431.5,282,74.5,25.7
0.157832,312.0,53.1,2830.6,159.4,3482.7,655.0,340.5,2882.7,3418.9,282.6,74.4,25.3
0.159832,313.3,54.2,2842.6,146.2,3491.0,710.2,341.3,2873.1,3405.7,283.3,74.3,25
0.161832,317.2,59.0,2857.2,131.0,3485.3,791.6,342.5,2863,3391.7,284,74.2,24.6
0.163832,324.3,68.2,2869.4,115.5,3446.5,861.0,344.1,2852.4,3377.1,284.6,74.2,24.2
0.165832,334.1,80.2,2875.8,104.0,3372.9,892.7,345.9,2841.5,3361.7,285.3,74.2,23.8
0.167832,345.1,92.2,2878.4,101.5,3287.6,873.3,348.1,2830.3,3345.7,285.9,74.2,23.4
0.169832,356.5,102.7,2881.1,113.2,3216.1,786.5,350.5,2818.8,3329,286.6,74.2,23
0.171832,368.0,112.0,2882.7,147.8,3164.5,631.6,353.1,2807.1,3311.6,287.2,74.2,22.7
0.173832,379.4,120.1,2869.5,214.6,3135.3,434.9,356,2795.3,3293.6,287.7,74.3,22.5
0.175832,388.9,126.4,2821.6,264.5,3142.0,270.6,359.1,2783.4,3275.1,288.3,74.4,22.3
0.177832,394.6,130.1,2765.6,253.0,3159.0,182.1,362.2,2771.5,3256,288.8,74.5,22.3
0.179832,396.3,131.9,2718.8,206.2,3173.6,136.4,365.5,2759.7,3236.5,289.2,74.6,22.4
0.181832,394.7,132.3,2685.2,151.0,3186.3,114.9,368.9,2748.1,3216.6,289.6,74.7,22.4
0.183832,390.3,131.0,2665.0,105.6,3199.0,112.4,372.3,2736.7,3196.4,289.9,74.8,22.5
0.185832,383.9,127.6,2655.7,75.1,3212.9,130.2,375.7,2725.5,3175.9,290.2,74.9,22.4
0.187832,377.7,123.2,2653.8,56.3,3226.1,173.7,379.1,2714.7,3155.3,290.4,75,22.3
0.189832,374.2,119.8,2656.4,45.3,3232.5,249.5,382.3,2704.3,3134.6,290.5,75.1,22.2
0.191832,374.0,118.8,2661.6,39.5,3222.0,358.1,385.5,2694.3,3113.8,290.5,75.3,22.3
0.193832,376.2,119.2,2668.0,37.3,3188.0,488.8,388.6,2684.9,3093.2,290.5,75.4,22.4
0.195832,379.6,120.3,2674.3,37.1,3134.2,610.0,391.5,2675.9,3072.7,290.3,75.5,22.9
0.197832,383.4,122.5,2679.4,38.1,3074.7,675.3,394.2,2667.5,3052.4,290,75.6,23.5
0.199832,387.2,125.8,2682.6,41.2,3025.6,655.4,396.7,2659.6,3032.5,289.7,75.7,24.3
0.201832,390.9,129.8,2683.5,47.3,2994.5,571.7,399,2652.4,3013,289.2,75.7,24.9
0.203832,394.3,134.0,2682.2,55.3,2978.6,477.9,401.1,2645.7,2994,288.7,75.6,25.3
0.205832,398.3,138.7,2679.7,63.9,2971.0,404.2,403,2639.6,2975.6,288,75.5,25.6
0.207832,404.5,144.1,2676.5,72.0,2965.4,353.3,404.7,2634.1,2957.7,287.2,75.3,25.9
0.209832,412.9,148.7,2672.5,78.7,2958.7,327.0,406.1,2629.2,2940.6,286.3,75.1,26
0.211832,419.3,151.9,2668.6,82.7,2950.6,340.3,407.3,2624.8,2924.2,285.4,74.7,25.8
0.213832,419.2,154.9,2666.4,83.2,2941.1,416.2,408.4,2621,2908.7,284.3,74.3,25.1
0.215832,414.2,155.0,2663.7,80.3,2925.0,549.1,409.2,2617.6,2894,283.2,73.8,23.7
0.217832,411.7,152.3,2656.8,81.1,2897.3,652.9,409.9,2614.7,2880.2,282,73.3,21.6
0.219832,415.5,151.7,2645.4,92.0,2870.6,646.6,410.5,2612.3,2867.4,280.7,72.7,19.2
0.221832,424.3,154.4,2629.8,107.6,2859.9,581.7,410.9,2610.2,2855.6,279.3,72,17
0.223832,434.7,157.8,2613.6,118.7,2861.5,543.2,411.2,2608.4,2844.8,278,71.2,15.2
0.225832,441.1,159.4,2603.2,125.3,2864.0,582.8,411.4,2607,2835,276.5,70.5,13.9
0.227832,438.3,159.4,2602.0,133.0,2855.7,730.2,411.5,2605.8,2826.4,275.1,69.7,12.8
0.229832,426.5,159.2,2610.3,147.0,2818.9,953.4,411.5,2604.9,2818.9,273.6,68.9,12
0.231832,410.5,160.6,2632.1,171.7,2738.5,1140.4,411.6,2604.2,2812.5,272.2,68.2,11.5
0.233832,396.2,167.6,2633.6,1201.1,2674.2,198.1,411.6,2603.7,2807.2,270.7,67.6,11.4
0.235832,386.4,180.5,2543.4,1147.2,2735.7,202.8,411.5,2603.3,2803.1,269.3,67.1,12.1
0.237832,380.2,191.5,2501.2,1066.8,2789.9,176.7,411.5,2603,2800.2,267.9,66.6,13.3
0.239832,380.5,196.8,2517.4,958.2,2817.8,156.0,411.5,2602.8,2798.4,266.6,66.3,14.8
0.241832,397.4,199.5,2560.6,818.2,2825.2,157.4,411.5,2602.8,2797.8,265.3,66.1,16.2
