time,f1,b1,f2,b2,f3,b3,f1p,f2p,f3p,f0,intensity,harmonicity
0.025760,276.5,96.2,2226.7,472.4,3040.8,74.5,319,2371.4,3074.2,236.1,62.9,2.4
0.027760,277.7,74.1,2305.8,580.5,3054.5,92.5,320.7,2373.7,3075.8,236.3,64.6,16.4
0.029760,281.1,78.5,2410.7,556.4,3076.5,109.3,323.4,2377.4,3078.5,236.5,66.1,19.6
0.031760,288.2,95.8,2441.0,473.8,3094.9,118.9,327.1,2382.5,3082.2,236.8,67.2,16.6
0.033760,300.7,115.4,2413.3,390.7,3109.5,122.3,331.8,2389,3086.7,237,68.1,11.9
0.035760,320.9,129.3,2376.9,311.6,3122.3,123.2,337.4,2396.5,3092.1,237.3,68.8,10.4
0.037760,347.6,128.3,2365.9,257.6,3130.1,136.0,343.8,2405.1,3098,237.6,69.4,12
0.039760,371.4,116.3,2384.8,235.9,3132.6,181.7,350.9,2414.6,3104.4,238,69.7,13.7
0.041760,388.8,105.4,2422.5,235.7,3136.5,273.0,358.5,2424.7,3111.2,238.3,70,15.3
0.043760,404.0,95.1,2468.9,243.2,3143.7,397.3,366.6,2435.3,3118.1,238.7,70.1,16.6
0.045760,417.5,84.0,2509.4,257.8,3141.3,477.4,375.1,2446.2,3124.9,239,70.3,17.6
0.047760,428.9,74.4,2537.8,278.6,3128.2,502.0,383.7,2457.2,3131.5,239.4,70.4,17.9
0.049760,437.3,68.8,2547.8,291.8,3118.3,490.6,392.5,2468.1,3137.6,239.8,70.5,17.7
0.051760,442.5,65.9,2541.0,288.7,3116.9,445.9,401.3,2478.7,3143.2,240.3,70.7,17.3
0.053760,445.2,63.5,2528.9,270.3,3114.4,390.8,409.8,2488.7,3148,240.7,71.1,17.1
0.055760,445.9,60.6,2519.0,244.0,3104.9,361.2,418.2,2498.1,3151.9,241.2,71.5,17.2
0.057760,445.2,58.0,2511.8,216.3,3098.5,357.2,426.2,2506.7,3154.8,241.7,72,18
0.059760,443.6,57.6,2507.5,192.0,3111.0,362.2,433.7,2514.4,3156.5,242.1,72.5,19.1
0.061760,442.1,60.2,2506.6,175.6,3142.2,361.6,440.8,2521,3157,242.6,73,20.3
0.063760,441.2,66.1,2508.6,163.5,3178.0,354.9,447.2,2526.4,3156.1,243.1,73.4,21.5
0.065760,441.2,73.1,2510.8,149.3,3199.7,364.6,453.1,2530.7,3153.9,243.7,73.8,22.2
0.067760,442.2,79.5,2509.8,125.3,3201.0,400.3,458.3,2533.6,3150.3,244.2,74.1,22.4
0.069760,443.8,87.0,2505.3,94.1,3179.2,412.9,462.8,2535.4,3145.3,244.7,74.3,22.1
0.071760,446.0,95.2,2498.9,70.6,3140.5,381.7,466.7,2535.8,3139,245.2,74.5,21.8
0.073760,449.2,96.8,2492.1,60.0,3096.8,356.9,469.9,2535,3131.4,245.8,74.5,21.5
0.075760,452.8,87.1,2486.7,60.6,3065.0,374.3,472.5,2533.1,3122.6,246.3,74.6,21.6
0.077760,455.8,76.8,2483.2,62.4,3047.0,402.6,474.5,2530,3112.8,246.8,74.7,22.2
0.079760,458.2,71.6,2481.4,59.0,3044.4,413.5,476,2526,3101.9,247.4,74.7,23
0.081760,460.1,71.1,2480.7,52.1,3056.4,409.3,477.1,2521,3090.2,247.9,74.8,24
0.083760,461.7,74.9,2480.5,44.4,3077.4,390.3,477.8,2515.2,3077.7,248.4,74.9,24.8
0.085760,463.4,81.2,2482.7,39.1,3091.6,371.2,478.2,2508.6,3064.7,248.9,75,25.3
0.087760,465.2,84.9,2489.7,37.8,3090.6,388.0,478.3,2501.5,3051.2,249.5,75,25.4
0.089760,467.5,82.3,2500.7,39.9,3078.2,462.2,478.3,2493.9,3037.5,250,75.1,25.2
0.091760,470.4,75.6,2511.5,44.0,3063.2,574.8,478.2,2485.9,3023.6,250.5,75,24.8
0.093760,474.1,67.7,2520.4,50.4,3053.9,673.2,478.1,2477.6,3009.7,251,75,24.3
0.095760,478.2,60.8,2526.3,60.7,3055.8,703.1,478.1,2469.1,2996,251.5,75,23.9
0.097760,482.4,54.6,2529.9,77.8,3060.0,671.9,478.3,2460.4,2982.5,252,74.9,23.5
0.099760,486.3,48.7,2530.4,104.8,3052.1,602.3,478.6,2451.7,2969.4,252.4,74.9,22.9
0.101760,489.7,43.1,2525.6,142.0,3027.3,530.1,479.2,2443,2956.7,252.9,74.9,22.4
0.103760,492.7,37.6,2509.9,185.6,2985.3,446.7,480.1,2434.2,2944.5,253.4,74.9,21.9
0.105760,495.2,33.2,2479.5,205.7,2939.2,344.0,481.3,2425.5,2932.8,253.8,75,21.6
0.107760,497.3,29.4,2443.3,195.2,2896.7,260.8,482.8,2416.7,2921.8,254.3,75.2,21.4
0.109760,499.3,25.6,2408.8,181.5,2858.7,217.2,484.7,2407.9,2911.3,254.7,75.3,21.4
0.111760,501.1,22.3,2376.8,171.9,2829.0,197.0,486.9,2399,2901.5,255.1,75.5,21.5
0.113760,502.9,19.6,2345.4,160.2,2807.3,185.9,489.3,2390,2892.2,255.5,75.7,21.7
0.115760,504.5,17.8,2320.7,144.6,2796.8,184.1,492.1,2380.7,2883.5,255.9,75.8,22
0.117760,506.0,17.2,2305.7,127.0,2795.7,195.3,495.1,2371.2,2875.3,256.2,76,22.4
0.119760,507.4,17.6,2299.2,107.9,2799.8,221.5,498.3,2361.4,2867.5,256.6,76.3,23
0.121760,508.7,18.4,2297.9,89.3,2804.8,256.6,501.6,2351.1,2860.1,256.9,76.5,23.7
0.123760,510.1,19.2,2298.3,73.5,2809.8,295.2,505,2340.4,2853.1,257.3,76.8,24.3
0.125760,511.4,19.5,2298.6,62.3,2821.6,329.8,508.4,2329,2846.3,257.6,77.2,24.8
0.127760,512.5,19.4,2298.0,54.5,2848.2,361.7,511.8,2317.1,2839.7,257.9,77.5,25.1
0.129760,513.5,19.1,2296.5,50.7,2882.4,394.1,515.1,2304.4,2833.3,258.1,77.9,25.4
0.131760,514.3,18.6,2294.8,52.5,2902.7,431.6,518.2,2291,2827,258.4,78.3,25.5
0.133760,515.0,18.2,2293.3,60.9,2895.7,482.4,521.1,2276.9,2820.7,258.6,78.7,25.6
0.135760,515.8,17.9,2290.6,75.7,2861.8,514.6,523.7,2262.1,2814.4,258.8,79.1,25.8
0.137760,516.6,18.1,2282.3,94.6,2827.5,485.6,526,2246.5,2808.1,259,79.5,25.9
0.139760,517.4,18.6,2264.3,115.8,2811.2,426.9,528,2230.3,2801.9,259.2,79.9,26
0.141760,518.3,18.8,2236.9,138.9,2804.5,383.2,529.5,2213.4,2795.6,259.3,80.3,26.1
0.143760,519.2,18.9,2198.6,156.2,2797.5,326.8,530.7,2196,2789.3,259.4,80.7,26.1
0.145760,520.2,19.0,2159.7,154.5,2790.4,253.1,531.5,2178.1,2783.2,259.5,81.1,26
0.147760,521.4,18.5,2129.9,145.2,2783.1,201.9,531.8,2159.9,2777.1,259.6,81.4,25.9
0.149760,522.6,17.7,2111.8,138.7,2775.1,179.1,531.8,2141.5,2771.2,259.6,81.7,25.6
0.151760,523.8,17.0,2102.5,139.0,2767.0,177.0,531.3,2123,2765.6,259.6,82,25.3
0.153760,525.0,16.5,2097.0,147.5,2757.7,189.1,530.5,2104.6,2760.2,259.6,82.2,25
0.155760,525.9,16.5,2091.5,164.7,2747.1,207.0,529.3,2086.4,2755.3,259.5,82.3,24.8
0.157760,526.5,16.7,2082.3,188.2,2737.2,216.7,527.8,2068.6,2750.9,259.4,82.4,24.8
0.159760,526.6,17.6,2069.6,213.5,2732.4,209.2,526.1,2051.4,2747.1,259.3,82.5,24.9
0.161760,526.3,19.0,2057.4,241.9,2733.3,195.6,524.1,2035,2744,259.1,82.4,25
0.163760,525.6,21.2,2046.8,283.7,2736.2,185.2,522,2019.4,2741.6,258.9,82.4,25.1
0.165760,524.1,24.0,2035.6,339.5,2738.6,179.7,519.8,2004.8,2740,258.7,82.2,25
0.167760,522.1,26.9,2016.7,393.9,2741.1,175.7,517.5,1991.4,2739.4,258.5,82.1,24.6
0.169760,519.9,29.4,1990.3,421.1,2748.1,171.3,515.2,1979.2,2739.6,258.2,81.9,24
0.171760,517.9,31.6,1971.8,416.3,2760.3,167.3,513,1968.3,2740.9,258,81.7,23.4
0.173760,515.9,34.2,1970.2,395.3,2774.4,163.8,510.8,1958.9,2743.1,257.7,81.5,22.9
0.175760,513.9,37.1,1980.2,372.7,2783.8,161.4,508.7,1950.8,2746.2,257.4,81.2,22.6
0.177760,512.0,39.5,1987.9,357.4,2785.0,162.4,506.8,1944.2,2750.3,257.1,81,22.5
0.179760,510.4,41.1,1986.3,347.2,2776.4,167.5,505,1939.1,2755.4,256.7,80.9,22.7
0.181760,508.9,41.5,1976.0,332.1,2757.6,172.9,503.5,1935.3,2761.2,256.4,80.8,23
0.183760,507.2,40.8,1957.2,306.7,2730.8,171.3,502.1,1932.8,2767.8,256.1,80.7,23.3
0.185760,505.3,39.2,1936.5,279.9,2715.4,160.2,501,1931.6,2775.1,255.7,80.7,23.5
0.187760,503.2,36.6,1918.8,266.5,2728.3,152.6,500.1,1931.5,2782.9,255.4,80.8,23.9
0.189760,501.8,33.2,1897.2,267.2,2762.2,156.6,499.4,1932.4,2791.1,255.1,80.9,24.5
0.191760,501.3,29.6,1869.9,266.6,2796.2,165.6,498.9,1934.2,2799.5,254.8,80.9,24.9
0.193760,501.1,25.9,1842.2,256.7,2817.8,171.2,498.5,1936.7,2808.1,254.5,80.9,24.9
0.195760,500.7,22.8,1824.0,244.9,2816.7,166.2,498.4,1939.7,2816.6,254.2,80.8,24.1
0.197760,500.3,20.7,1817.4,239.7,2800.3,144.4,498.3,1943,2824.9,254,80.5,22.1
0.199760,500.6,19.6,1819.8,241.0,2784.3,118.5,498.4,1946.6,2832.8,253.7,79.9,19.2
0.201760,502.2,19.5,1825.2,247.9,2775.5,106.9,498.5,1950.2,2840.2,253.5,79.1,15.9
0.203760,505.4,20.3,1834.0,271.6,2775.5,112.3,498.7,1953.7,2846.9,253.2,78,12.6
0.205760,509.9,23.2,1854.6,328.2,2789.0,135.5,498.9,1956.9,2852.9,253,76.7,10
0.207760,514.1,31.5,1902.9,420.6,2819.3,174.0,499.1,1959.7,2857.9,252.8,75.2,7.7
0.209760,514.1,50.8,1986.8,515.7,2866.0,213.8,499.3,1962,2862,252.6,73.7,5.5
0.211760,504.8,81.6,2084.0,584.2,2921.8,237.3,499.4,1963.8,2864.9,252.5,72.6,3.6
0.213760,479.9,128.3,2200.4,611.8,2984.1,247.9,499.5,1964.8,2866.7,252.3,71.8,2.3
0.215760,431.1,167.8,2297.9,546.5,3029.2,234.4,499.5,1965.2,2867.3,252.2,71.3,1.8
