time,f1,b1,f2,b2,f3,b3,f1p,f2p,f3p,f0,intensity,harmonicity
0.025422,414.1,39.2,2462.5,100.3,3098.8,143.1,437.7,2483,3082.3,191.3,76.6,4.8
0.027422,413.1,33.9,2460.2,102.9,3094.1,155.7,439,2480.4,3080.5,191.3,77.7,5.6
0.029422,413.5,30.1,2457.0,105.6,3089.0,178.1,441.1,2476,3077.6,191.3,78.8,6.3
0.031422,415.4,28.2,2456.5,112.0,3083.1,207.5,443.9,2470,3073.5,191.3,79.6,6.9
0.033422,418.9,28.4,2458.3,125.1,3075.4,241.5,447.6,2462.4,3068.4,191.3,80.3,7.4
0.035422,424.4,30.7,2459.3,144.1,3064.0,273.4,452,2453.2,3062.3,191.3,80.9,8.1
0.037422,432.9,35.3,2456.3,167.3,3047.9,294.4,457.1,2442.6,3055.3,191.2,81.2,8.7
0.039422,445.4,41.7,2449.2,188.4,3034.7,293.1,462.9,2430.6,3047.5,191.2,81.4,9.4
0.041422,462.7,48.5,2439.2,206.0,3028.6,274.2,469.3,2417.3,3039,191.1,81.5,10
0.043422,484.2,52.9,2424.9,226.7,3024.3,252.9,476.3,2402.8,3029.9,191,81.5,10.5
0.045422,506.2,52.5,2404.5,253.9,3016.9,236.8,483.7,2387.3,3020.3,190.9,81.6,11
0.047422,527.4,47.5,2375.9,283.7,3005.2,222.4,491.7,2370.9,3010.4,190.8,81.8,11.4
0.049422,544.7,40.3,2343.4,306.3,2991.8,209.2,500,2353.7,3000.2,190.7,82.2,11.8
0.051422,557.9,33.5,2313.9,319.8,2979.2,197.8,508.6,2335.8,2990,190.5,82.7,12.2
0.053422,567.8,28.3,2292.6,327.4,2969.3,187.9,517.5,2317.5,2979.7,190.3,83.4,12.3
0.055422,574.9,24.8,2281.9,332.3,2962.3,182.3,526.6,2298.7,2969.6,190.1,84.2,12.2
0.057422,580.0,22.5,2278.6,336.3,2956.2,183.6,535.9,2279.8,2959.8,189.9,85,11.8
0.059422,583.3,21.2,2275.5,336.3,2949.8,190.4,545.2,2260.7,2950.4,189.7,85.7,11.2
0.061422,585.4,20.8,2264.2,330.7,2941.7,200.3,554.6,2241.6,2941.4,189.4,86.4,10.5
0.063422,586.5,21.0,2243.8,321.6,2931.4,211.5,563.9,2222.6,2932.9,189.1,87,10.1
0.065422,587.0,21.5,2220.6,312.4,2920.2,219.8,573.1,2203.9,2925.1,188.8,87.4,9.9
0.067422,587.2,22.4,2196.7,302.1,2909.8,219.2,582.2,2185.6,2917.9,188.4,87.6,9.9
0.069422,586.9,23.8,2174.0,289.0,2903.4,207.1,591.2,2167.6,2911.4,188,87.7,10.1
0.071422,586.3,26.2,2153.2,272.7,2901.5,188.7,599.9,2150.2,2905.7,187.7,87.5,10.3
0.073422,585.4,30.0,2133.1,254.9,2902.0,171.2,608.5,2133.4,2900.8,187.3,87.2,10.5
0.075422,584.6,35.3,2113.6,237.1,2902.6,160.1,616.7,2117.3,2896.6,186.8,86.7,10.6
0.077422,584.3,43.1,2096.3,219.0,2902.0,158.3,624.7,2101.8,2893.1,186.4,86.1,10.6
0.079422,585.9,53.5,2086.3,205.2,2900.0,169.6,632.4,2087.1,2890.4,186,85.4,10.6
0.081422,591.2,65.5,2080.7,198.4,2898.1,191.4,639.8,2073.1,2888.3,185.5,84.8,10.5
0.083422,601.0,77.2,2072.1,197.6,2899.7,211.2,646.9,2060,2886.9,185,84.2,10.4
0.085422,613.8,86.5,2056.0,200.8,2904.6,217.7,653.7,2047.6,2886.1,184.6,83.7,10.3
0.087422,630.0,92.4,2031.5,206.6,2908.8,211.3,660.2,2036.1,2885.8,184.1,83.3,10
0.089422,648.4,93.0,2005.2,211.6,2908.3,195.2,666.4,2025.3,2885.9,183.6,83,9.7
0.091422,667.9,89.0,1983.5,212.2,2903.2,174.4,672.4,2015.3,2886.3,183.1,82.7,9.4
0.093422,686.9,82.6,1972.6,205.6,2895.5,155.4,678.1,2006.1,2887,182.6,82.6,9.2
0.095422,702.5,76.3,1973.2,192.9,2887.1,143.6,683.6,1997.5,2887.8,182.2,82.5,9.2
0.097422,713.9,71.0,1977.5,176.8,2879.4,137.5,688.9,1989.7,2888.8,181.7,82.6,9.2
0.099422,719.7,68.8,1978.2,162.1,2874.9,134.9,694,1982.5,2889.7,181.2,82.7,9.4
0.101422,721.1,70.5,1975.2,151.3,2874.0,133.4,699,1975.9,2890.6,180.8,82.8,9.6
0.103422,719.7,75.2,1970.2,145.1,2875.1,133.8,703.9,1969.8,2891.3,180.4,82.9,9.9
0.105422,717.6,80.4,1964.5,142.8,2877.1,137.3,708.6,1964.3,2891.8,179.9,82.9,10.3
0.107422,716.8,86.6,1958.8,141.9,2879.9,143.1,713.3,1959.3,2891.9,179.5,82.9,11
0.109422,718.7,94.4,1955.1,139.2,2883.3,148.3,717.9,1954.7,2891.7,179.1,82.8,11.7
0.111422,723.5,102.8,1954.7,132.4,2886.4,151.7,722.6,1950.4,2891.1,178.7,82.7,12.3
0.113422,730.9,110.4,1956.9,122.6,2887.9,154.9,727.2,1946.6,2890.1,178.3,82.5,12.8
0.115422,739.1,116.1,1959.4,113.9,2886.7,160.6,731.8,1943,2888.6,177.9,82.4,12.9
0.117422,746.5,119.0,1960.3,109.1,2882.6,173.7,736.4,1939.8,2886.6,177.6,82.2,12.8
0.119422,750.9,119.0,1958.7,110.3,2875.4,195.8,741.1,1936.8,2884.1,177.2,82.1,12.4
0.121422,753.3,117.8,1954.4,115.5,2865.9,217.6,745.8,1934,2881.1,176.9,82,12
0.123422,755.4,115.5,1946.9,120.6,2858.8,219.5,750.6,1931.4,2877.7,176.5,81.9,11.7
0.125422,758.0,112.3,1937.3,123.1,2857.7,198.9,755.4,1929.1,2873.8,176.2,81.8,11.6
0.127422,760.4,108.2,1926.6,124.2,2859.7,171.8,760.2,1926.9,2869.4,175.9,81.7,11.8
0.129422,761.9,104.3,1917.8,126.9,2860.9,152.7,765.1,1924.8,2864.7,175.6,81.6,12.1
0.131422,763.2,102.8,1912.0,134.2,2861.0,143.5,769.9,1923,2859.6,175.3,81.5,12.5
0.133422,765.9,104.8,1910.1,144.6,2861.4,142.1,774.7,1921.2,2854.3,175,81.4,12.7
0.135422,771.1,110.5,1911.7,153.9,2862.9,147.1,779.5,1919.7,2848.7,174.8,81.2,12.7
0.137422,779.6,120.7,1915.5,160.1,2865.4,157.9,784.3,1918.2,2842.9,174.5,80.9,12.5
0.139422,790.7,133.1,1919.3,161.1,2867.5,171.3,789,1916.9,2836.9,174.3,80.7,12.2
0.141422,803.4,143.3,1921.6,156.9,2867.4,184.7,793.5,1915.7,2830.9,174,80.5,11.9
0.143422,815.0,149.2,1921.9,149.4,2863.6,197.5,797.9,1914.7,2824.9,173.8,80.4,11.8
0.145422,821.4,149.8,1920.6,141.8,2856.0,209.6,802.1,1913.7,2818.8,173.5,80.3,12
0.147422,821.3,143.9,1917.5,135.6,2842.5,223.1,806.1,1912.9,2812.9,173.3,80.4,12.6
0.149422,816.3,133.4,1912.5,131.4,2822.9,235.1,809.9,1912.2,2807,173.1,80.5,13.4
0.151422,810.0,122.6,1906.2,127.1,2802.2,238.7,813.4,1911.6,2801.3,172.9,80.7,14.1
0.153422,805.3,113.8,1900.0,121.6,2785.7,233.9,816.5,1911.1,2795.8,172.7,80.8,14.6
0.155422,803.2,108.3,1896.6,117.1,2774.0,229.3,819.3,1910.7,2790.5,172.5,81,14.8
0.157422,804.2,106.1,1896.5,115.9,2763.2,230.8,821.8,1910.4,2785.5,172.3,81.2,14.5
0.159422,807.9,107.2,1898.3,119.6,2751.6,239.1,823.9,1910.2,2780.6,172.1,81.3,14
0.161422,812.7,109.7,1899.8,125.6,2740.1,249.3,825.5,1909.9,2776.1,171.9,81.3,13.5
0.163422,816.7,111.7,1901.1,130.3,2732.2,257.6,826.7,1909.8,2771.7,171.7,81.3,13.2
0.165422,819.7,113.5,1902.6,132.4,2728.9,262.4,827.4,1909.6,2767.6,171.5,81.3,13.3
0.167422,822.1,116.4,1904.3,131.7,2730.8,263.0,827.7,1909.4,2763.8,171.3,81.3,13.5
0.169422,822.3,119.6,1906.2,127.4,2739.8,260.3,827.5,1909.2,2760.1,171.2,81.3,14
0.171422,820.2,122.5,1908.8,120.0,2754.2,257.5,826.8,1908.9,2756.7,171,81.3,14.5
0.173422,817.6,125.1,1912.0,111.0,2766.2,255.3,825.6,1908.6,2753.4,170.8,81.2,15
0.175422,816.6,126.7,1914.9,102.8,2767.4,253.3,823.9,1908.2,2750.2,170.7,81.2,15.5
0.177422,817.0,127.2,1916.2,97.0,2757.8,250.0,821.8,1907.6,2747.2,170.5,81.3,16
0.179422,816.9,127.0,1915.6,94.8,2746.2,245.0,819.2,1907,2744.2,170.3,81.3,16.6
0.181422,815.8,127.4,1914.4,95.7,2741.7,241.4,816.2,1906.2,2741.3,170.2,81.3,17.1
0.183422,815.0,129.3,1913.4,98.8,2745.4,240.6,812.8,1905.2,2738.5,170,81.3,17.4
0.185422,814.9,131.7,1912.3,101.9,2751.9,239.5,809,1904.2,2735.6,169.9,81.3,17.4
0.187422,814.6,134.4,1910.7,104.2,2756.8,237.1,804.9,1902.9,2732.7,169.7,81.3,17
0.189422,813.1,138.1,1908.8,105.8,2757.0,235.2,800.4,1901.5,2729.8,169.6,81.2,16.4
0.191422,810.1,141.4,1906.6,105.8,2752.0,234.4,795.7,1899.9,2726.8,169.4,81.2,15.8
0.193422,805.8,141.3,1904.2,103.3,2741.6,234.0,790.7,1898.1,2723.8,169.3,81.2,15.3
0.195422,800.3,138.0,1901.4,99.3,2728.6,233.4,785.6,1896.2,2720.8,169.2,81.2,15.1
0.197422,792.6,133.3,1897.9,94.8,2715.7,231.1,780.3,1894.2,2717.6,169,81.3,15.2
0.199422,783.0,128.9,1894.9,90.2,2706.4,226.1,774.9,1892,2714.5,168.9,81.3,15.5
0.201422,773.7,125.4,1892.4,85.8,2700.3,218.1,769.5,1889.8,2711.3,168.8,81.3,15.7
0.203422,766.5,123.1,1889.4,81.8,2697.8,208.2,764.1,1887.5,2708,168.7,81.3,15.9
0.205422,761.4,122.2,1885.2,78.5,2699.2,199.4,758.7,1885.1,2704.8,168.5,81.2,16
0.207422,756.7,122.2,1879.0,75.9,2702.4,191.8,753.5,1882.7,2701.6,168.4,81.1,15.9
0.209422,751.8,121.6,1871.7,74.0,2702.3,184.4,748.4,1880.3,2698.4,168.3,80.9,15.7
0.211422,746.8,119.2,1864.6,72.8,2695.2,175.2,743.5,1877.9,2695.4,168.2,80.7,15.6
0.213422,741.7,115.6,1857.7,72.1,2683.6,162.8,738.9,1875.7,2692.4,168.1,80.5,15.4
0.215422,736.1,111.9,1851.5,71.6,2674.4,149.6,734.6,1873.5,2689.6,168,80.2,15.3
0.217422,729.0,108.2,1848.0,71.6,2670.5,139.8,730.6,1871.4,2687,167.9,80,15.3
0.219422,721.0,105.4,1850.3,72.5,2670.7,137.1,727,1869.6,2684.6,167.9,79.8,15.2
0.221422,714.3,103.3,1858.5,73.2,2671.5,140.2,723.8,1867.9,2682.4,167.8,79.6,15.1
0.223422,710.2,101.5,1869.3,72.3,2671.7,145.5,721,1866.4,2680.6,167.7,79.5,15.1
0.225422,708.1,100.5,1877.8,70.2,2672.7,149.8,718.7,1865.1,2679,167.6,79.3,15.3
0.227422,707.5,101.7,1881.8,67.6,2676.5,152.4,716.9,1864.1,2677.7,167.6,79.2,15.5
0.229422,709.1,107.0,1880.6,65.1,2684.2,153.6,715.6,1863.4,2676.8,167.5,78.9,15.8
0.231422,712.6,117.8,1876.2,63.5,2694.4,154.6,714.8,1863,2676.3,167.5,78.7,16.1
0.233422,717.5,133.1,1871.7,62.8,2702.8,157.0,714.6,1862.9,2676.1,167.4,78.4,16.3
