time,f1,b1,f2,b2,f3,b3,f1p,f2p,f3p,f0,intensity,harmonicity
0.025764,426.3,87.9,2302.8,282.7,3240.2,369.8,554.2,2313.6,3200.4,197.9,72.8,10.9
0.027764,443.4,104.2,2304.2,226.3,3242.9,223.9,554.8,2313.3,3199.8,197.9,73.4,10.8
0.029764,465.3,119.8,2303.9,203.9,3253.1,164.4,555.9,2312.8,3198.8,197.9,73.8,10.6
0.031764,490.8,132.9,2305.3,195.3,3264.9,141.0,557.3,2312.1,3197.3,198,74,10.5
0.033764,518.1,140.8,2312.6,189.4,3274.9,135.3,559.1,2311.3,3195.5,198,74.1,10.7
0.035764,547.5,140.5,2325.6,184.0,3281.9,140.6,561.3,2310.2,3193.2,198,74.2,11.2
0.037764,573.8,132.8,2337.3,184.7,3282.5,154.5,563.9,2308.9,3190.6,198.1,74.2,11.8
0.039764,593.6,122.1,2340.5,197.8,3273.3,173.8,566.9,2307.5,3187.5,198.1,74.3,12.6
0.041764,605.0,111.0,2330.3,224.0,3253.2,195.9,570.2,2305.8,3184.1,198.1,74.4,13.4
0.043764,609.0,100.8,2310.0,250.2,3226.3,217.9,573.9,2304,3180.4,198.2,74.6,14.1
0.045764,608.9,90.7,2292.3,266.0,3195.9,247.5,577.9,2302,3176.2,198.2,74.8,14.9
0.047764,607.5,81.8,2294.4,274.9,3166.2,295.3,582.3,2299.8,3171.7,198.2,75.2,15.7
0.049764,606.5,73.0,2317.0,283.2,3137.6,359.2,587,2297.4,3166.9,198.3,75.6,16.5
0.051764,606.7,63.3,2344.1,284.0,3114.4,403.6,591.9,2294.8,3161.8,198.3,76,17.2
0.053764,607.5,54.0,2355.5,275.1,3104.5,390.7,597.2,2292,3156.4,198.3,76.5,17.6
0.055764,608.2,46.4,2347.9,264.0,3106.7,337.0,602.7,2289.1,3150.7,198.3,77,17.8
0.057764,608.6,41.4,2330.8,258.2,3113.2,289.7,608.5,2285.9,3144.7,198.4,77.4,17.8
0.059764,609.2,38.4,2314.8,258.5,3116.9,270.9,614.5,2282.6,3138.4,198.4,77.8,17.6
0.061764,610.4,36.7,2303.3,263.1,3115.8,279.2,620.7,2279.2,3132,198.4,78.1,17.3
0.063764,612.4,35.8,2293.4,269.7,3112.7,301.9,627.1,2275.5,3125.3,198.4,78.3,17
0.065764,615.4,35.9,2279.0,277.3,3110.6,326.8,633.7,2271.7,3118.4,198.4,78.4,16.6
0.067764,619.1,37.5,2258.7,280.0,3113.2,347.0,640.4,2267.7,3111.3,198.4,78.4,16.1
0.069764,623.9,41.5,2240.8,268.9,3122.2,367.9,647.3,2263.5,3104.1,198.4,78.2,15.5
0.071764,630.8,49.0,2233.4,246.7,3131.7,384.2,654.2,2259.2,3096.7,198.4,77.9,15
0.073764,640.9,59.7,2232.9,228.4,3129.3,367.4,661.2,2254.7,3089.2,198.4,77.6,14.7
0.075764,657.1,73.2,2235.1,221.4,3111.1,315.6,668.3,2250.1,3081.6,198.3,77.2,14.6
0.077764,678.5,86.0,2240.3,225.8,3083.6,269.0,675.5,2245.3,3074,198.3,76.9,14.7
0.079764,700.5,95.1,2246.3,237.7,3048.8,250.7,682.6,2240.4,3066.3,198.3,76.6,14.9
0.081764,718.9,98.8,2247.5,253.6,3003.8,258.6,689.8,2235.3,3058.5,198.3,76.4,15.1
0.083764,733.1,97.2,2241.8,272.0,2952.9,280.1,696.9,2230.1,3050.8,198.3,76.2,15.3
0.085764,746.4,92.1,2233.9,295.9,2908.5,307.3,703.9,2224.7,3043,198.3,76.1,15.4
0.087764,758.7,86.4,2229.8,322.8,2894.0,330.8,710.9,2219.3,3035.3,198.3,76.1,15.5
0.089764,769.1,81.6,2224.2,348.7,2909.9,331.6,717.8,2213.7,3027.7,198.3,76.1,15.6
0.091764,777.1,78.7,2208.7,374.1,2934.7,307.3,724.6,2207.9,3020.1,198.3,76.1,15.9
0.093764,783.0,78.4,2187.6,390.4,2954.3,283.7,731.3,2202.1,3012.6,198.3,76.1,16.3
0.095764,787.8,80.0,2168.0,386.1,2968.8,272.2,737.8,2196.2,3005.2,198.3,76.1,17.1
0.097764,791.3,82.3,2151.2,361.9,2979.5,263.4,744.1,2190.1,2998,198.4,76.1,18.1
0.099764,793.7,84.5,2131.8,331.2,2988.8,239.8,750.2,2184,2990.9,198.4,76.1,19.1
0.101764,795.5,86.6,2108.6,303.9,2996.5,205.2,756.2,2177.7,2984,198.4,76.1,20.1
0.103764,797.3,88.9,2088.8,286.7,3000.1,179.8,761.9,2171.4,2977.2,198.5,76.1,20.8
0.105764,799.3,92.8,2079.5,286.1,2998.5,174.4,767.4,2165,2970.7,198.5,76.1,21.3
0.107764,801.0,98.7,2084.1,309.1,2990.3,193.5,772.6,2158.5,2964.4,198.5,76.2,21.5
0.109764,802.3,105.1,2093.4,348.9,2975.0,224.4,777.6,2152,2958.3,198.6,76.2,21.6
0.111764,803.5,109.7,2095.6,387.2,2957.1,238.6,782.3,2145.4,2952.5,198.6,76.2,21.7
0.113764,804.9,111.9,2089.3,408.7,2944.6,224.9,786.7,2138.7,2947,198.7,76.3,21.7
0.115764,806.6,113.0,2082.9,420.0,2937.0,199.7,790.8,2132,2941.7,198.8,76.3,21.8
0.117764,807.9,114.5,2082.9,429.7,2930.8,182.8,794.6,2125.3,2936.7,198.8,76.3,21.8
0.119764,808.7,117.2,2087.8,427.1,2924.2,181.9,798.1,2118.5,2932,198.9,76.4,21.9
0.121764,809.0,121.3,2093.2,395.9,2918.3,195.5,801.2,2111.7,2927.6,199,76.4,21.9
0.123764,809.2,125.5,2095.1,352.8,2914.7,212.1,804.1,2104.9,2923.5,199,76.4,22.1
0.125764,809.4,128.0,2092.8,318.8,2915.0,220.2,806.6,2098.1,2919.8,199.1,76.4,22.4
0.127764,809.7,126.3,2085.2,305.5,2920.4,214.4,808.8,2091.3,2916.4,199.2,76.4,22.8
0.129764,809.8,120.0,2071.2,308.0,2927.7,200.1,810.6,2084.5,2913.3,199.3,76.5,23.3
0.131764,809.7,111.4,2055.0,311.0,2932.7,188.7,812.2,2077.8,2910.6,199.4,76.5,23.7
0.133764,809.6,104.3,2047.3,304.5,2932.2,192.7,813.4,2071,2908.2,199.5,76.6,24.1
0.135764,809.1,101.1,2050.0,294.5,2922.9,219.9,814.2,2064.3,2906.2,199.6,76.6,24.4
0.137764,807.6,104.0,2058.2,290.2,2901.7,273.9,814.8,2057.6,2904.5,199.6,76.7,24.8
0.139764,805.1,112.4,2068.3,291.5,2866.8,352.5,815,2051,2903.2,199.7,76.7,25
0.141764,802.4,124.3,2079.5,294.8,2819.4,437.2,814.9,2044.4,2902.2,199.8,76.8,25.3
0.143764,799.6,136.2,2088.8,297.5,2776.6,492.4,814.5,2037.9,2901.6,199.9,76.8,25.5
0.145764,796.2,145.7,2094.3,295.3,2764.6,511.5,813.9,2031.4,2901.3,200,76.9,25.7
0.147764,792.3,150.2,2092.3,285.3,2796.6,500.7,812.9,2025.1,2901.3,200.1,76.9,25.9
0.149764,788.2,152.1,2080.8,274.8,2848.7,468.1,811.7,2018.8,2901.7,200.2,77,26
0.151764,784.8,156.3,2063.2,273.4,2889.0,434.8,810.2,2012.6,2902.4,200.3,77.1,26.1
0.153764,782.3,164.1,2047.9,286.7,2900.3,413.3,808.4,2006.5,2903.4,200.4,77.1,26.1
0.155764,779.8,176.2,2039.6,316.9,2884.3,393.5,806.4,2000.6,2904.8,200.5,77.2,25.8
0.157764,776.0,192.6,2038.7,348.4,2864.5,368.2,804.2,1994.7,2906.4,200.6,77.3,25.4
0.159764,769.8,213.0,2037.9,349.9,2870.8,339.6,801.8,1989,2908.3,200.7,77.3,25
0.161764,761.5,231.0,2027.0,315.0,2901.7,304.5,799.2,1983.3,2910.5,200.8,77.4,24.6
0.163764,754.2,241.3,2009.0,274.0,2932.5,271.2,796.4,1977.9,2913,200.9,77.5,24.3
0.165764,749.4,246.9,1992.1,240.8,2951.3,250.7,793.4,1972.5,2915.8,200.9,77.5,24.3
0.167764,747.4,248.3,1982.5,212.8,2956.7,247.5,790.3,1967.3,2918.7,201,77.6,24.5
0.169764,746.8,241.0,1978.6,183.2,2959.0,254.2,787.1,1962.3,2921.9,201.1,77.7,24.7
0.171764,747.3,221.5,1975.7,156.0,2968.8,260.5,783.8,1957.4,2925.4,201.2,77.8,24.9
0.173764,750.2,197.8,1971.0,140.6,2986.1,263.4,780.4,1952.6,2929,201.2,77.9,25.1
0.175764,757.2,180.1,1962.6,141.8,3000.9,268.5,776.9,1948,2932.8,201.3,77.9,25.3
0.177764,766.4,174.5,1950.3,159.4,3005.5,276.3,773.4,1943.6,2936.7,201.3,78,25.4
0.179764,773.9,175.0,1931.9,179.6,3007.6,274.6,769.8,1939.4,2940.9,201.4,78.1,25.5
0.181764,777.7,170.9,1907.9,182.3,3016.5,254.3,766.3,1935.3,2945.1,201.4,78.1,25.7
0.183764,778.1,159.7,1887.2,166.1,3029.4,224.1,762.7,1931.4,2949.5,201.4,78.2,25.9
0.185764,776.8,148.2,1877.4,147.0,3039.1,195.1,759.2,1927.7,2953.9,201.5,78.3,26.4
0.187764,774.4,145.5,1881.4,138.6,3039.5,174.4,755.7,1924.1,2958.5,201.5,78.3,27.1
0.189764,770.7,154.4,1895.6,141.3,3034.7,162.2,752.3,1920.7,2963.1,201.5,78.3,27.7
0.191764,765.7,172.8,1912.9,149.0,3031.5,159.3,748.9,1917.5,2967.8,201.5,78.4,28.3
0.193764,760.8,190.2,1924.1,152.7,3029.1,165.3,745.7,1914.5,2972.5,201.5,78.4,28.6
0.195764,758.0,195.3,1925.3,149.1,3027.1,174.4,742.5,1911.7,2977.2,201.5,78.4,28.6
0.197764,755.9,188.8,1919.4,142.8,3030.2,178.3,739.5,1909,2981.8,201.5,78.5,28.3
0.199764,751.6,178.8,1910.7,141.6,3038.8,166.4,736.6,1906.5,2986.5,201.5,78.5,27.9
0.201764,743.7,175.0,1903.4,154.7,3043.8,141.4,733.9,1904.2,2991.1,201.5,78.5,27.6
0.203764,734.8,180.2,1899.5,185.9,3042.0,122.3,731.4,1902.1,2995.7,201.5,78.6,27.5
0.205764,726.7,189.0,1897.2,229.6,3037.8,115.5,729,1900.1,3000.2,201.5,78.6,27.7
0.207764,721.3,193.6,1896.7,264.7,3033.9,122.1,726.9,1898.3,3004.6,201.5,78.6,28.2
0.209764,719.1,191.6,1902.0,288.7,3030.4,142.5,724.9,1896.6,3008.9,201.4,78.6,28.8
0.211764,720.4,187.0,1914.7,318.3,3026.5,169.7,723.2,1895.1,3013,201.4,78.6,29.3
0.213764,723.8,181.2,1924.4,346.9,3024.1,182.9,721.7,1893.8,3017.1,201.4,78.7,29.6
0.215764,727.3,172.8,1917.3,348.2,3025.9,174.3,720.4,1892.6,3021,201.3,78.7,29.6
0.217764,728.6,160.7,1895.9,314.1,3031.5,157.0,719.4,1891.6,3024.7,201.3,78.7,29.5
0.219764,727.0,146.8,1877.6,271.6,3036.3,146.5,718.6,1890.7,3028.2,201.3,78.7,29.3
0.221764,723.4,137.4,1871.7,240.1,3036.7,148.4,718.1,1889.9,3031.6,201.2,78.7,29
0.223764,719.6,136.1,1873.2,217.5,3033.7,155.6,717.8,1889.2,3034.7,201.2,78.7,28.8
0.225764,717.5,142.3,1872.2,200.5,3032.8,153.6,717.8,1888.7,3037.6,201.2,78.8,28.7
0.227764,716.8,153.5,1869.6,191.1,3034.5,141.3,718.1,1888.3,3040.4,201.1,78.8,28.5
0.229764,716.3,165.5,1874.0,189.8,3033.8,129.8,718.6,1888,3042.8,201.1,78.8,28.3
0.231764,714.5,175.9,1886.9,191.7,3031.2,123.4,719.4,1887.8,3045.1,201,78.8,28.2
0.233764,710.9,185.7,1900.5,197.3,3030.7,121.0,720.4,1887.7,3047.1,201,78.8,28.1
0.235764,706.9,194.9,1908.4,210.9,3035.2,121.3,721.7,1887.6,3048.8,200.9,78.8,28.1
0.237764,703.9,201.8,1911.1,234.9,3046.7,121.8,723.3,1887.7,3050.3,200.9,78.8,28.1
0.239764,704.1,203.3,1909.4,261.0,3061.9,118.3,725.1,1887.8,3051.5,200.8,78.8,28.1
0.241764,707.4,201.9,1904.0,278.0,3071.8,109.9,727.1,1887.9,3052.5,200.7,78.8,28.1
0.243764,712.0,203.7,1897.2,282.1,3070.4,102.5,729.4,1888.1,3053.1,200.7,78.8,28.2
0.245764,716.4,210.9,1892.0,276.7,3058.7,101.0,731.9,1888.4,3053.5,200.6,78.8,28.3
0.247764,720.5,220.5,1890.3,270.2,3039.7,108.9,734.7,1888.7,3053.7,200.5,78.8,28.4
0.249764,726.1,225.2,1891.9,271.2,3015.1,127.3,737.6,1889,3053.5,200.5,78.8,28.6
0.251764,733.6,219.5,1895.2,278.5,2988.0,152.2,740.8,1889.3,3053.1,200.4,78.8,28.7
0.253764,740.3,206.6,1897.5,282.3,2969.0,171.4,744.1,1889.6,3052.4,200.3,78.7,28.7
0.255764,743.8,195.3,1896.9,277.9,2969.7,174.8,747.6,1889.9,3051.4,200.2,78.7,28.5
0.257764,746.0,190.8,1892.7,275.0,2984.0,169.3,751.3,1890.2,3050.2,200.1,78.7,28.2
0.259764,751.0,192.7,1886.9,284.8,2994.7,171.8,755.1,1890.5,3048.6,200,78.7,27.9
0.261764,760.8,194.0,1882.5,304.4,2993.8,190.2,759.1,1890.8,3046.9,199.9,78.7,27.5
0.263764,772.6,190.8,1881.2,326.9,2986.0,214.5,763.2,1891,3044.8,199.8,78.7,27.2
0.265764,782.2,185.8,1883.2,352.4,2980.2,222.8,767.3,1891.1,3042.6,199.7,78.7,27
0.267764,789.1,181.5,1889.4,384.7,2977.2,210.0,771.6,1891.3,3040,199.6,78.7,26.9
0.269764,793.2,177.7,1901.4,398.5,2971.8,192.2,776,1891.3,3037.3,199.5,78.6,26.7
0.271764,796.3,172.4,1913.9,360.0,2963.3,178.4,780.4,1891.3,3034.3,199.4,78.6,26.6
0.273764,800.3,166.3,1918.6,300.1,2956.0,169.2,784.8,1891.2,3031.1,199.3,78.6,26.6
0.275764,805.4,159.1,1916.3,248.9,2955.0,162.2,789.3,1891.1,3027.6,199.2,78.5,26.6
0.277764,809.8,151.7,1909.8,215.6,2964.2,154.8,793.8,1890.8,3024,199.1,78.5,26.8
0.279764,813.6,146.2,1902.5,201.6,2979.5,145.1,798.3,1890.4,3020.2,198.9,78.5,26.9
0.281764,818.6,145.2,1896.9,211.7,2991.3,136.4,802.7,1890,3016.2,198.8,78.4,27.1
0.283764,826.1,150.9,1895.3,249.2,2996.5,135.1,807.1,1889.4,3012,198.7,78.4,27.1
0.285764,834.9,162.7,1898.7,303.3,2999.4,142.2,811.5,1888.8,3007.7,198.5,78.4,27
0.287764,843.3,173.4,1902.9,347.1,2999.5,151.8,815.8,1888,3003.2,198.4,78.3,26.9
0.289764,847.4,171.6,1897.0,356.6,2987.2,164.0,820,1887.1,2998.6,198.3,78.3,26.7
0.291764,848.8,163.6,1886.4,362.5,2961.7,187.4,824.1,1886.1,2993.9,198.1,78.2,26.5
0.293764,850.6,158.0,1877.4,385.5,2929.5,225.5,828,1884.9,2989.1,198,78.2,26.3
0.295764,853.1,155.3,1868.5,409.0,2902.6,273.0,831.9,1883.7,2984.1,197.8,78.1,26.2
0.297764,855.8,153.6,1859.2,416.0,2892.2,327.0,835.6,1882.3,2979.1,197.7,78,26.1
0.299764,857.8,153.9,1850.1,415.1,2905.5,375.2,839.1,1880.7,2974,197.5,78,26.1
0.301764,859.3,158.8,1837.1,434.6,2935.7,404.9,842.4,1879.1,2968.9,197.3,77.9,26
0.303764,861.9,170.4,1814.3,497.6,2973.0,407.3,845.6,1877.3,2963.7,197.2,77.8,25.9
0.305764,867.2,187.6,1780.8,612.6,3005.7,383.6,848.6,1875.4,2958.5,197,77.7,25.8
0.307764,875.3,207.8,1735.9,785.4,3024.5,346.7,851.3,1873.4,2953.2,196.8,77.6,25.5
0.309764,882.7,223.2,1688.9,967.6,3025.5,314.3,853.9,1871.2,2948,196.7,77.5,25.3
0.311764,884.2,229.3,1656.8,1071.6,3016.5,295.7,856.2,1868.9,2942.8,196.5,77.4,25
0.313764,878.3,225.4,1659.8,1029.8,3009.4,291.6,858.3,1866.5,2937.6,196.3,77.3,24.8
0.315764,868.5,211.0,1696.0,873.9,3012.3,293.7,860.2,1863.9,2932.4,196.1,77.2,24.7
0.317764,858.9,187.6,1742.5,675.9,3020.3,292.6,861.8,1861.3,2927.3,195.9,77.1,24.5
0.319764,853.2,166.5,1779.1,533.9,3021.2,297.6,863.1,1858.5,2922.2,195.8,77,24.4
0.321764,851.2,156.8,1804.4,485.1,3007.7,331.8,864.2,1855.7,2917.2,195.6,76.8,24.3
0.323764,851.7,160.3,1821.6,530.4,2971.3,408.2,865,1852.7,2912.2,195.4,76.7,24.2
0.325764,853.4,173.8,1835.7,671.6,2889.9,514.4,865.6,1849.6,2907.4,195.2,76.5,24.1
0.327764,855.0,190.5,1854.1,856.5,2793.5,580.0,865.9,1846.4,2902.6,195,76.4,24.1
0.329764,855.9,202.5,1899.3,957.7,2761.4,639.0,866,1843.2,2898,194.8,76.2,24.1
0.331764,855.9,205.7,1944.7,917.9,2804.6,704.7,865.8,1839.9,2893.5,194.6,76,24
0.333764,855.6,201.3,1956.0,837.3,2877.4,706.8,865.3,1836.5,2889.1,194.4,75.8,23.9
0.335764,855.0,193.8,1954.0,807.2,2926.7,666.8,864.6,1833,2884.8,194.2,75.6,23.7
0.337764,853.7,185.7,1954.9,838.2,2946.5,627.9,863.6,1829.5,2880.7,194,75.4,23.4
0.339764,851.6,178.3,1961.6,880.9,2957.3,601.5,862.4,1825.9,2876.8,193.8,75.2,23
0.341764,848.3,170.7,1964.2,840.4,2977.4,574.4,861,1822.3,2873,193.6,75,22.7
0.343764,844.4,162.6,1957.5,724.7,2989.7,551.0,859.3,1818.7,2869.3,193.3,74.8,22.4
0.345764,841.3,155.3,1955.3,624.8,2977.1,554.6,857.3,1815,2865.9,193.1,74.5,22.2
0.347764,838.7,147.9,1963.8,554.7,2948.3,576.9,855.2,1811.4,2862.6,192.9,74.3,22
0.349764,836.5,138.6,1978.2,494.6,2933.0,587.3,852.8,1807.7,2859.5,192.7,74,21.9
0.351764,834.6,127.4,1987.0,435.6,2944.7,561.4,850.3,1804,2856.5,192.5,73.7,21.7
0.353764,832.6,116.5,1981.4,399.6,2961.0,503.0,847.5,1800.3,2853.8,192.3,73.3,21.4
0.355764,830.4,109.3,1957.9,403.7,2961.6,440.3,844.5,1796.7,2851.3,192.1,73,21
0.357764,826.9,107.5,1909.5,446.1,2949.5,377.9,841.4,1793.1,2848.9,191.8,72.6,20.5
0.359764,821.8,112.6,1843.2,503.5,2938.0,331.0,838.2,1789.5,2846.7,191.6,72.2,19.9
0.361764,815.8,120.1,1790.6,538.2,2929.6,322.0,834.7,1786,2844.8,191.4,71.8,19.3
0.363764,810.4,123.6,1780.1,538.9,2919.8,361.0,831.2,1782.5,2843,191.2,71.5,18.8
0.365764,806.0,124.1,1800.7,533.9,2910.3,433.0,827.5,1779.1,2841.4,191,71.1,18.3
0.367764,800.5,125.4,1829.7,559.1,2904.0,519.4,823.7,1775.8,2840,190.8,70.7,17.8
0.369764,792.2,128.1,1844.7,654.2,2895.8,601.5,819.8,1772.6,2838.9,190.6,70.3,17.3
0.371764,781.7,128.6,1803.4,849.5,2864.8,671.1,815.8,1769.5,2837.9,190.4,69.9,16.9
0.373764,772.1,122.4,1648.6,915.7,1968.5,5769.2,811.8,1766.4,2837.1,190.3,69.6,16.4
0.375764,767.6,112.1,1590.1,737.8,2772.3,569.7,807.7,1763.5,2836.5,190.1,69.2,16
0.377764,766.9,102.5,1607.8,594.6,2788.9,512.9,803.6,1760.7,2836,189.9,68.9,15.6
0.379764,765.7,96.0,1627.1,516.5,2841.7,481.6,799.4,1758,2835.8,189.7,68.6,15.3
0.381764,761.9,91.7,1616.5,478.1,2901.5,431.1,795.3,1755.5,2835.7,189.6,68.4,15
0.383764,757.0,89.2,1578.5,448.9,2934.7,365.4,791.1,1753.1,2835.8,189.4,68.3,14.8
0.385764,754.1,88.9,1546.6,414.2,2940.6,310.5,787,1750.8,2836.1,189.3,68.2,14.9
0.387764,756.9,91.6,1561.3,392.9,2925.8,303.1,782.8,1748.7,2836.6,189.2,68.2,15.1
0.389764,763.2,96.1,1611.8,394.3,2901.6,358.6,778.8,1746.7,2837.2,189.1,68.3,15.4
0.391764,768.0,102.8,1662.7,412.8,2873.4,458.9,774.7,1744.9,2838,188.9,68.4,15.7
0.393764,769.6,112.7,1693.8,444.4,2829.3,558.6,770.8,1743.3,2838.9,188.8,68.6,16
0.395764,768.2,124.9,1707.6,483.9,2762.9,609.3,766.9,1741.8,2840,188.7,68.7,16.2
0.397764,766.2,137.2,1724.3,519.0,2686.1,607.9,763.1,1740.5,2841.2,188.6,68.9,16.4
0.399764,765.0,145.5,1761.2,528.8,2634.6,601.2,759.4,1739.4,2842.5,188.5,69.1,16.7
0.401764,762.6,150.6,1806.8,512.0,2625.7,631.5,755.8,1738.5,2844,188.5,69.2,16.8
0.403764,757.1,156.4,1833.2,488.2,2665.8,691.5,752.3,1737.7,2845.6,188.4,69.4,16.9
0.405764,750.2,163.8,1826.2,473.4,2759.6,723.6,749,1737.1,2847.3,188.3,69.6,16.9
0.407764,745.0,170.5,1784.4,469.3,2886.2,628.1,745.8,1736.7,2849.1,188.3,69.7,16.8
0.409764,743.6,176.5,1731.7,489.4,2955.2,456.9,742.7,1736.4,2851,188.2,69.8,16.6
0.411764,746.6,184.3,1712.9,545.0,2959.3,356.6,739.8,1736.4,2853,188.1,69.9,16.5
0.413764,752.8,189.4,1746.0,589.3,2940.4,329.4,737.1,1736.5,2855,188.1,70,16.7
0.415764,756.1,192.5,1790.5,580.7,2921.6,334.9,734.5,1736.8,2857.2,188,70,17.1
0.417764,754.7,197.5,1818.4,546.4,2907.1,355.3,732,1737.2,2859.4,188,70,17.8
0.419764,751.6,197.7,1830.6,500.4,2898.8,373.4,729.8,1737.8,2861.7,188,69.9,18.6
0.421764,751.2,182.9,1837.6,426.9,2889.4,363.0,727.7,1738.6,2864.1,187.9,69.9,19.3
0.423764,752.7,158.3,1845.6,344.4,2877.7,327.6,725.7,1739.6,2866.5,187.9,69.7,19.6
0.425764,753.7,140.8,1851.6,291.6,2867.3,304.6,724,1740.7,2868.9,187.8,69.6,19.6
0.427764,755.2,138.5,1849.9,277.1,2856.4,316.2,722.4,1741.9,2871.4,187.8,69.5,19.2
0.429764,758.3,146.8,1839.0,290.9,2846.0,357.5,721,1743.3,2873.9,187.8,69.3,18.8
0.431764,763.0,153.4,1822.0,312.1,2839.7,401.9,719.8,1744.9,2876.5,187.8,69.2,18.4
0.433764,768.0,154.1,1801.9,335.9,2837.3,440.9,718.7,1746.5,2879,187.7,69.1,18.3
0.435764,770.4,153.3,1782.8,363.4,2840.5,485.7,717.8,1748.3,2881.6,187.7,69.1,18.6
0.437764,768.8,151.6,1764.7,385.4,2858.5,537.3,717.1,1750.2,2884.2,187.7,69,19.1
0.439764,764.2,146.4,1744.0,386.3,2884.9,557.2,716.5,1752.2,2886.8,187.7,69,19.6
0.441764,757.9,139.7,1716.9,384.3,2889.9,539.6,716.1,1754.4,2889.3,187.7,68.9,20.2
0.443764,750.5,135.4,1684.7,401.6,2859.7,506.2,715.9,1756.6,2891.9,187.6,68.9,20.6
0.445764,742.5,132.8,1647.7,428.1,2815.7,457.6,715.8,1758.9,2894.4,187.6,68.8,20.7
0.447764,736.9,129.2,1627.3,430.4,2797.5,415.4,715.8,1761.2,2896.9,187.6,68.7,20.8
0.449764,735.3,123.9,1639.7,404.5,2806.7,399.4,715.9,1763.6,2899.4,187.6,68.7,20.8
0.451764,735.6,118.0,1666.6,373.4,2819.9,401.8,716.2,1766.1,2901.9,187.6,68.6,20.8
0.453764,734.3,113.1,1684.3,361.2,2825.9,410.2,716.6,1768.7,2904.3,187.6,68.6,20.8
0.455764,730.9,110.0,1683.4,376.6,2832.8,414.8,717.1,1771.2,2906.6,187.6,68.6,21
0.457764,726.5,108.2,1662.0,414.8,2850.3,410.6,717.7,1773.8,2909,187.6,68.7,21.1
0.459764,723.6,107.0,1626.8,447.1,2876.5,390.7,718.4,1776.4,2911.2,187.6,68.7,21.3
0.461764,723.8,105.4,1602.2,447.2,2909.5,365.9,719.2,1779,2913.4,187.6,68.8,21.5
0.463764,727.2,102.3,1618.8,420.9,2947.5,362.0,720,1781.6,2915.6,187.6,68.9,21.8
0.465764,732.2,97.5,1672.4,376.3,2978.2,380.2,720.9,1784.2,2917.7,187.6,69,22
0.467764,736.3,91.8,1729.1,317.5,2993.9,409.5,721.8,1786.8,2919.7,187.6,69,22.3
0.469764,738.0,87.5,1762.3,269.5,2990.5,457.0,722.8,1789.3,2921.7,187.7,69.1,22.6
0.471764,737.4,85.7,1775.3,242.4,2969.9,534.1,723.9,1791.8,2923.6,187.7,69.2,22.8
0.473764,735.5,85.7,1778.6,229.6,2938.4,611.6,724.9,1794.2,2925.4,187.7,69.2,22.8
0.475764,733.8,85.7,1780.6,219.9,2917.2,630.6,726,1796.6,2927.1,187.7,69.3,22.6
0.477764,733.0,85.4,1788.5,207.7,2920.6,596.3,727,1798.9,2928.7,187.7,69.4,22.2
0.479764,733.8,84.4,1805.8,190.1,2941.7,533.9,728.1,1801.1,2930.3,187.8,69.5,21.6
0.481764,735.8,81.4,1827.8,162.9,2965.7,442.6,729.2,1803.2,2931.8,187.8,69.6,21.2
0.483764,737.1,76.9,1845.4,133.5,2983.1,345.1,730.2,1805.3,2933.2,187.8,69.7,21
0.485764,736.3,73.4,1854.8,111.4,2991.5,275.6,731.2,1807.2,2934.5,187.8,69.8,21.1
0.487764,733.3,72.0,1858.4,97.0,2996.0,237.6,732.1,1809,2935.7,187.9,69.9,21.4
0.489764,728.4,74.3,1858.9,92.0,3003.3,232.4,733,1810.7,2936.8,187.9,70,21.8
0.491764,722.4,79.2,1858.4,94.1,3016.7,251.6,733.9,1812.3,2937.9,187.9,70.1,22.1
0.493764,717.1,83.9,1859.7,97.8,3031.4,280.9,734.7,1813.7,2938.8,187.9,70.1,22
0.495764,714.3,86.6,1866.0,96.4,3037.3,303.8,735.4,1815,2939.7,188,70.2,21.6
0.497764,713.7,86.8,1876.3,86.5,3027.1,312.7,736,1816.2,2940.4,188,70.2,20.9
0.499764,712.8,84.8,1884.1,72.2,3001.6,314.1,736.6,1817.2,2941,188,70.2,20.1
0.501764,709.0,83.5,1886.6,60.8,2969.8,335.8,737.1,1818.1,2941.6,188,70.2,19.2
0.503764,702.1,84.1,1886.3,55.0,2934.6,398.3,737.5,1818.8,2942,188,70.1,18.5
0.505764,691.6,85.5,1885.4,53.7,2890.6,508.9,737.8,1819.3,2942.4,188,70.1,18
0.507764,678.5,86.0,1884.7,55.8,2850.7,637.0,738.1,1819.7,2942.7,188,69.9,17.7
0.509764,663.8,85.4,1883.6,59.9,2838.1,735.5,738.2,1820,2942.8,188.1,69.7,17.4
0.511764,648.0,86.4,1882.5,66.4,2859.8,790.6,738.3,1820,2942.9,188.1,69.4,16.7
