time,f1,b1,f2,b2,f3,b3,f1p,f2p,f3p,f0,intensity,harmonicity
0.025467,534.5,49.8,2158.0,108.7,3015.4,259.1,524.6,2165.4,3059.6,252.6,74.2,9
0.027467,531.5,49.5,2166.6,120.0,3003.1,294.8,525.8,2165.2,3057.3,251.7,74.6,9.1
0.029467,526.1,51.5,2175.6,129.3,3008.8,336.8,527.8,2164.9,3053.5,250.7,74.8,8.9
0.031467,519.7,54.1,2181.9,128.2,3029.6,365.9,530.5,2164.4,3048.4,249.7,74.9,8.7
0.033467,514.4,55.7,2182.2,118.1,3050.3,361.1,533.9,2163.8,3042,248.7,75,8.6
0.035467,513.1,55.5,2177.8,107.0,3061.6,329.6,538.1,2163.1,3034.3,247.5,75,9.1
0.037467,515.8,54.8,2172.3,103.8,3065.8,300.7,542.9,2162.4,3025.6,246.4,75,10.1
0.039467,520.9,56.6,2166.9,114.7,3057.2,287.0,548.2,2161.5,3016.1,245.2,74.9,11.3
0.041467,528.0,63.1,2160.5,142.7,3030.1,281.1,554.2,2160.6,3005.8,244,74.6,12.5
0.043467,539.7,76.6,2148.3,191.9,2987.8,269.4,560.6,2159.6,2994.9,242.8,74.3,13.2
0.045467,559.0,97.1,2126.3,252.9,2947.1,248.7,567.5,2158.5,2983.7,241.6,73.8,13.2
0.047467,588.7,120.3,2098.9,299.8,2920.0,223.4,574.8,2157.5,2972.4,240.3,73.3,12.2
0.049467,624.6,136.1,2081.7,318.2,2912.6,200.5,582.3,2156.4,2961.1,239.1,72.7,10.9
0.051467,650.8,140.5,2083.3,334.0,2920.4,187.7,590.1,2155.3,2950,237.8,72.3,9.5
0.053467,660.2,137.8,2102.5,378.5,2931.6,187.4,598.1,2154.2,2939.3,236.6,72,8.8
0.055467,658.1,128.8,2135.5,451.1,2935.4,195.8,606.2,2153.2,2929.2,235.3,71.8,9.1
0.057467,653.1,116.5,2173.1,531.8,2929.0,207.1,614.4,2152.1,2919.8,234.1,71.9,10.3
0.059467,647.1,106.2,2202.2,605.3,2917.3,220.7,622.5,2151.1,2911.3,232.9,71.9,12.2
0.061467,640.6,101.6,2212.5,654.0,2911.7,239.2,630.6,2150.1,2903.7,231.7,72,14.1
0.063467,634.7,103.5,2214.5,669.7,2927.8,266.6,638.6,2149,2897.2,230.6,72.1,15.7
0.065467,631.8,110.0,2221.4,656.3,2966.2,283.5,646.4,2148,2891.8,229.5,72.1,16.5
0.067467,632.7,117.2,2230.9,632.3,2998.6,282.4,654.1,2147,2887.6,228.4,72,16.9
0.069467,637.1,122.7,2233.3,606.0,3009.6,286.2,661.5,2145.9,2884.6,227.3,71.9,17
0.071467,643.7,126.0,2216.7,588.4,2998.6,299.1,668.7,2144.7,2882.7,226.3,71.7,16.9
0.073467,651.4,130.8,2180.6,603.5,2966.4,302.7,675.5,2143.6,2882,225.3,71.5,16.7
0.075467,659.1,141.5,2130.5,670.2,2925.6,278.3,682.1,2142.3,2882.3,224.4,71.3,16.3
0.077467,666.3,158.2,2079.9,752.8,2895.1,241.5,688.4,2140.9,2883.5,223.5,71.1,15.6
0.079467,672.1,178.0,2060.8,808.5,2879.2,226.9,694.3,2139.3,2885.7,222.6,71,14.8
0.081467,673.7,199.5,2074.5,845.3,2867.5,243.0,700,2137.6,2888.5,221.7,70.9,14
0.083467,670.9,224.9,2092.3,867.6,2847.9,278.6,705.3,2135.7,2892,220.9,71,13.3
0.085467,669.7,254.2,2091.9,848.2,2821.8,314.1,710.3,2133.7,2895.9,220.1,71.1,12.9
0.087467,678.8,288.3,2085.9,783.3,2806.0,355.4,715,2131.3,2900,219.4,71.3,12.7
0.089467,702.8,322.6,2091.0,712.7,2807.7,413.7,719.4,2128.8,2904.3,218.7,71.5,12.7
0.091467,734.0,350.3,2102.7,677.3,2814.4,460.6,723.6,2125.9,2908.5,218,71.6,12.8
0.093467,763.5,368.1,2111.2,658.8,2818.6,482.9,727.5,2122.8,2912.4,217.3,71.8,13.1
0.095467,780.7,364.7,2109.9,584.2,2834.8,504.7,731.1,2119.4,2916,216.7,71.8,13.6
0.097467,784.3,334.4,2104.3,423.2,2876.6,539.7,734.5,2115.7,2919,216.1,71.9,14.5
0.099467,781.8,290.1,2103.0,260.1,2926.6,548.9,737.8,2111.8,2921.4,215.5,71.9,15.6
0.101467,779.5,252.4,2105.9,163.6,2952.0,496.6,740.8,2107.5,2922.9,214.9,71.8,16.7
0.103467,780.2,222.6,2109.3,115.0,2959.8,419.5,743.6,2103,2923.6,214.4,71.8,17.6
0.105467,782.5,199.7,2111.3,96.7,2961.5,366.3,746.3,2098.2,2923.2,213.8,71.7,18
0.107467,780.9,186.9,2113.1,100.9,2950.2,339.2,748.8,2093.2,2921.9,213.3,71.8,17.9
0.109467,770.9,192.2,2117.3,131.8,2914.7,325.1,751.1,2088,2919.5,212.8,72,17.6
0.111467,753.8,213.6,2123.1,186.7,2868.0,311.4,753.3,2082.6,2916,212.4,72.2,17.2
0.113467,735.8,240.6,2122.7,238.2,2831.8,296.0,755.3,2077,2911.5,211.9,72.5,17
0.115467,728.6,256.8,2109.9,249.4,2819.3,289.2,757.1,2071.3,2906,211.5,72.8,17.2
0.117467,734.6,262.5,2089.3,241.7,2824.5,300.5,758.7,2065.6,2899.5,211.1,73.1,17.7
0.119467,742.7,280.6,2067.2,246.8,2841.9,338.3,760.2,2059.8,2892.3,210.7,73.4,18.3
0.121467,744.1,327.9,2051.4,270.8,2875.6,411.8,761.3,2054.1,2884.3,210.3,73.7,18.9
0.123467,737.6,399.4,2046.3,299.7,2946.0,515.0,762.3,2048.4,2875.7,209.9,73.9,19.6
0.125467,728.0,445.9,2043.7,310.4,3028.8,539.3,762.9,2042.8,2866.7,209.5,74,20.2
0.127467,720.3,439.8,2030.5,312.8,3027.6,491.8,763.3,2037.4,2857.3,209.1,74.2,20.7
0.129467,712.6,424.2,2009.2,333.0,2971.8,435.7,763.3,2032.1,2847.9,208.8,74.3,21.3
0.131467,704.7,427.7,1991.8,369.1,2914.2,386.7,763,2027,2838.5,208.4,74.4,21.8
0.133467,702.2,428.8,1996.9,390.0,2872.0,365.7,762.2,2022.2,2829.4,208.1,74.5,22.3
0.135467,710.9,404.6,2026.4,367.8,2854.1,384.6,761.1,2017.7,2820.6,207.7,74.6,22.7
0.137467,727.9,375.3,2048.3,333.7,2848.4,437.5,759.5,2013.5,2812.4,207.4,74.8,23.1
0.139467,750.0,364.5,2049.4,327.8,2842.4,529.0,757.4,2009.5,2805,207.1,75,23.5
0.141467,775.3,368.1,2035.1,352.5,2843.4,639.0,754.8,2006,2798.4,206.8,75.2,23.8
0.143467,800.9,362.5,2000.9,389.6,2856.8,672.7,751.6,2002.7,2792.8,206.5,75.4,24
0.145467,818.1,342.8,1954.5,419.1,2847.8,577.9,747.9,1999.8,2788.3,206.2,75.6,24.1
0.147467,827.6,332.5,1935.4,440.0,2801.6,486.7,743.7,1997.1,2785.1,205.9,75.8,23.9
0.149467,829.6,331.7,1948.7,431.0,2739.7,438.7,738.9,1994.8,2783.1,205.6,76,23.6
0.151467,823.7,332.4,1966.1,379.0,2693.5,421.6,733.5,1992.8,2782.4,205.3,76.3,23.3
0.153467,812.3,334.5,1978.3,308.6,2666.5,445.6,727.5,1990.9,2783.1,205,76.5,23.1
0.155467,798.2,343.4,1989.1,250.8,2658.2,538.8,721,1989.3,2785.1,204.8,76.6,23
0.157467,780.5,366.1,2001.4,211.8,2666.7,718.7,713.9,1987.9,2788.5,204.5,76.8,23.1
0.159467,755.4,407.0,2012.4,192.7,2683.0,929.2,706.2,1986.6,2793.1,204.2,76.9,23.3
0.161467,720.1,455.5,2016.5,197.4,2689.2,993.9,698.1,1985.3,2798.9,204,77,23.5
0.163467,673.0,498.0,2007.9,215.0,2697.8,853.6,689.4,1984,2805.8,203.7,77.1,23.7
0.165467,621.8,536.1,1993.0,214.2,2738.1,703.3,680.3,1982.8,2813.7,203.5,77.2,23.8
0.167467,571.8,570.9,1986.4,187.5,2816.8,643.0,670.7,1981.4,2822.5,203.3,77.2,24
0.169467,537.5,578.1,1987.7,147.1,2928.6,594.8,660.7,1979.8,2832,203,77.3,24.1
0.171467,535.2,534.2,1987.1,111.0,2993.4,511.9,650.4,1978.1,2842.1,202.8,77.4,24.3
0.173467,550.9,458.1,1980.5,90.2,2970.0,481.5,639.8,1976.1,2852.6,202.6,77.4,24.4
0.175467,564.4,406.5,1970.7,84.9,2898.4,448.5,629,1973.9,2863.3,202.4,77.5,24.3
0.177467,571.7,387.8,1960.2,87.2,2847.3,405.1,618,1971.3,2874.2,202.2,77.5,24.2
0.179467,572.3,391.7,1951.7,91.1,2829.2,391.5,606.8,1968.3,2885,202,77.5,24
0.181467,568.7,405.8,1948.1,93.8,2834.2,407.0,595.5,1965,2895.7,201.8,77.5,23.8
0.183467,566.3,418.7,1950.2,96.4,2853.3,437.3,584.2,1961.2,2905.9,201.6,77.5,23.7
0.185467,569.7,422.9,1955.5,101.0,2883.2,468.7,573,1957.1,2915.7,201.4,77.4,23.8
0.187467,577.0,420.8,1959.3,107.7,2929.3,496.2,561.8,1952.5,2925,201.2,77.4,23.9
0.189467,583.2,416.8,1957.3,116.4,2990.0,504.0,550.7,1947.5,2933.5,201.1,77.3,24.1
0.191467,585.9,408.0,1948.6,128.5,3029.4,476.2,539.8,1942.1,2941.3,200.9,77.2,24.4
0.193467,584.1,398.9,1934.5,149.7,3022.1,429.2,529.2,1936.3,2948.2,200.7,77.1,24.8
0.195467,576.0,402.4,1920.8,181.3,2989.3,377.3,518.8,1930.2,2954.3,200.6,77.1,25.3
0.197467,561.6,411.5,1913.4,211.8,2964.1,325.6,508.7,1923.9,2959.4,200.4,77,26
0.199467,542.0,415.7,1915.2,227.4,2961.2,275.3,499.1,1917.2,2963.7,200.3,76.9,26.7
0.201467,518.4,424.1,1921.0,233.8,2975.0,230.7,489.8,1910.4,2967.1,200.2,76.8,27.5
0.203467,489.4,448.8,1919.4,248.6,2992.1,193.9,480.9,1903.5,2969.7,200,76.7,28.1
0.205467,460.6,477.1,1899.4,267.0,3002.6,168.1,472.5,1896.5,2971.5,199.9,76.7,28.6
0.207467,449.2,471.4,1869.6,249.5,3006.4,145.9,464.6,1889.6,2972.6,199.7,76.6,28.9
0.209467,460.8,430.0,1857.6,196.3,3008.9,129.7,457.2,1882.8,2973,199.6,76.6,29.1
0.211467,475.3,389.7,1866.1,151.4,3010.6,125.2,450.3,1876.1,2972.9,199.5,76.5,29.2
0.213467,485.5,362.2,1883.2,124.5,3009.1,128.9,444,1869.7,2972.3,199.4,76.5,29.3
0.215467,491.9,343.4,1897.9,112.9,3001.3,134.4,438.2,1863.6,2971.4,199.2,76.4,29.3
0.217467,493.8,325.4,1903.5,111.3,2987.2,138.3,433,1857.9,2970.2,199.1,76.4,29.5
0.219467,488.5,306.8,1896.6,116.5,2971.5,141.1,428.4,1852.8,2968.9,199,76.3,29.6
0.221467,475.7,292.3,1878.4,124.9,2961.1,142.9,424.5,1848.1,2967.6,198.9,76.3,29.4
0.223467,455.7,284.8,1853.3,131.1,2958.8,142.4,421.1,1844.1,2966.2,198.8,76.2,28.9
0.225467,430.4,288.3,1834.5,132.4,2957.0,140.3,418.3,1840.7,2965,198.6,76,27.6
0.227467,396.9,305.2,1825.1,137.0,2942.8,143.5,416.1,1838.1,2964,198.5,75.8,25.4
0.229467,348.1,322.5,1815.9,151.1,2915.7,155.3,414.6,1836.1,2963.3,198.4,75.5,22.7
0.231467,289.1,296.5,1800.9,171.4,2884.7,174.9,413.6,1835,2962.8,198.3,75.2,20
0.233467,255.0,231.6,1781.9,192.8,2856.1,207.0,413.3,1834.6,2962.6,198.2,74.7,17.9
