time,f1,b1,f2,b2,f3,b3,f1p,f2p,f3p,f0,intensity,harmonicity
0.025406,282.4,117.3,2610.2,93.0,3474.3,173.1,276.2,2643.6,3517.1,208,79.1,22.3
0.027406,283.5,119.0,2613.9,97.8,3483.4,152.2,277.7,2643.7,3516,208.3,79.4,22.2
0.029406,286.3,120.9,2626.2,101.0,3487.4,147.0,280.1,2643.8,3514.2,208.7,79.6,22.3
0.031406,290.7,122.4,2640.6,99.1,3485.8,156.8,283.4,2644,3511.7,209,79.8,22.5
0.033406,295.5,122.7,2649.5,95.0,3480.3,177.7,287.6,2644.2,3508.5,209.4,79.9,22.6
0.035406,298.8,121.8,2651.8,90.9,3478.9,203.4,292.7,2644.5,3504.8,209.9,80,22.8
0.037406,299.4,120.5,2651.2,86.0,3494.3,219.8,298.5,2644.9,3500.7,210.4,80.1,22.9
0.039406,297.0,118.6,2651.6,80.5,3524.5,224.8,305.1,2645.4,3496.1,210.9,80.1,23
0.041406,294.4,115.8,2654.5,78.2,3547.8,232.9,312.4,2645.9,3491.1,211.4,80.1,23
0.043406,295.1,114.4,2660.0,79.6,3554.1,255.9,320.2,2646.6,3486,212,80,23.1
0.045406,302.6,116.9,2666.3,81.8,3541.8,288.6,328.5,2647.3,3480.6,212.7,79.9,23
0.047406,317.6,119.9,2669.3,82.5,3516.6,316.0,337.3,2648.2,3475.2,213.4,79.8,22.8
0.049406,338.0,114.6,2665.8,81.7,3485.1,332.0,346.3,2649.2,3469.8,214.1,79.6,22.6
0.051406,355.1,103.4,2656.2,78.9,3460.0,331.5,355.7,2650.3,3464.4,214.9,79.3,22.3
0.053406,368.7,94.1,2647.1,72.5,3444.2,318.7,365.1,2651.4,3459.1,215.7,79,21.8
0.055406,381.3,87.0,2643.7,64.2,3431.7,308.5,374.7,2652.7,3453.9,216.6,78.6,21.1
0.057406,393.2,80.2,2645.2,58.2,3420.4,315.3,384.2,2654.1,3448.8,217.5,78.2,20.2
0.059406,405.5,73.4,2649.7,55.4,3413.7,344.8,393.6,2655.5,3444,218.5,77.6,18.9
0.061406,416.9,69.1,2656.2,55.2,3422.8,382.5,402.8,2656.9,3439.2,219.6,76.9,17.4
0.063406,427.8,67.3,2663.3,57.4,3451.9,393.3,411.8,2658.3,3434.5,220.6,76.2,15.8
0.065406,438.5,65.1,2668.9,64.6,3478.0,358.3,420.4,2659.6,3429.9,221.8,75.5,14.2
0.067406,448.1,58.8,2670.8,80.0,3477.2,315.6,428.6,2660.9,3425.3,222.9,74.8,12.7
0.069406,455.8,48.6,2668.1,107.8,3457.5,284.7,436.4,2662,3420.6,224.2,74.2,11
0.071406,459.6,39.7,2663.2,143.9,3433.2,270.7,443.7,2662.9,3415.7,225.4,73.9,9.2
0.073406,460.3,34.4,2664.9,176.8,3407.6,277.1,450.5,2663.6,3410.6,226.7,74,7.7
0.075406,459.5,32.5,2679.1,195.8,3384.8,298.9,456.7,2663.9,3405.1,228.1,74.4,6.6
0.077406,458.6,32.4,2693.7,201.3,3374.3,314.0,462.4,2663.8,3399.1,229.5,75,6.4
0.079406,458.0,32.9,2694.4,201.7,3371.0,308.4,467.5,2663.3,3392.5,230.9,75.7,7.1
0.081406,458.1,33.6,2676.8,199.6,3363.3,287.8,472,2662.3,3385.3,232.3,76.2,8.3
0.083406,459.1,34.2,2648.0,187.4,3346.7,263.2,476,2660.7,3377.3,233.8,76.7,9.7
0.085406,461.3,34.0,2620.5,158.8,3325.4,239.8,479.5,2658.5,3368.5,235.3,77,10.9
0.087406,464.4,32.6,2605.9,125.2,3311.6,222.5,482.5,2655.6,3358.8,236.8,77.1,11.7
0.089406,468.5,30.9,2603.5,97.0,3312.4,215.0,485.1,2651.9,3348.2,238.4,77.1,12.3
0.091406,473.0,29.4,2609.7,79.9,3321.4,218.6,487.2,2647.4,3336.6,240,77,12.7
0.093406,477.8,28.1,2620.6,71.1,3325.9,227.6,489.1,2642,3324,241.5,76.8,13
0.095406,483.0,26.9,2632.8,69.1,3319.2,235.6,490.7,2635.8,3310.5,243.1,76.6,13.4
0.097406,487.4,25.8,2640.2,74.6,3304.7,243.5,492.1,2628.7,3296.1,244.7,76.5,13.7
0.099406,491.0,24.8,2640.3,90.3,3285.9,263.8,493.4,2620.6,3280.9,246.2,76.4,14.1
0.101406,493.7,24.0,2630.5,113.6,3263.5,294.6,494.6,2611.7,3265,247.8,76.5,14.5
0.103406,496.3,23.7,2609.4,133.1,3239.1,314.7,495.8,2601.8,3248.4,249.4,76.8,14.7
0.105406,499.4,23.5,2582.5,133.4,3225.4,314.2,497.1,2591.1,3231.2,250.9,77.1,14.9
0.107406,502.6,23.2,2564.0,118.7,3229.6,311.7,498.6,2579.5,3213.7,252.5,77.3,14.9
0.109406,506.2,23.3,2553.7,103.7,3239.6,314.2,500.2,2567.1,3196,254,77.6,14.7
0.111406,509.9,23.2,2547.4,97.0,3240.1,318.2,502,2554,3178.3,255.5,77.7,14.4
0.113406,513.7,22.4,2541.7,99.6,3227.9,324.3,504.2,2540.2,3160.7,257,77.8,14
0.115406,517.6,19.9,2535.7,111.5,3204.6,336.7,506.6,2525.8,3143.3,258.5,77.9,13.8
0.117406,521.2,16.5,2530.3,129.7,3172.5,360.9,509.4,2510.9,3126.4,259.9,78,13.8
0.119406,524.8,13.3,2523.6,150.8,3124.4,397.5,512.5,2495.7,3110.1,261.3,78.1,14
0.121406,527.9,11.9,2511.6,166.1,3068.1,420.4,515.9,2480.2,3094.6,262.7,78.3,14.2
0.123406,530.6,12.1,2489.7,168.8,3026.7,406.0,519.7,2464.6,3080,264,78.6,14.6
0.125406,533.4,13.3,2460.1,152.8,3017.4,358.2,523.7,2449,3066.5,265.4,78.8,15.1
0.127406,536.5,14.3,2434.4,127.1,3026.5,297.6,528,2433.5,3054,266.6,79.1,15.8
0.129406,539.9,14.4,2416.4,103.8,3033.4,234.5,532.6,2418.3,3042.7,267.9,79.4,17
0.131406,542.8,13.7,2407.8,91.1,3030.6,184.9,537.3,2403.5,3032.7,269.1,79.7,18.3
0.133406,545.0,12.5,2404.7,89.0,3020.9,148.6,542.1,2389.3,3023.9,270.3,79.9,19.5
0.135406,546.6,11.7,2402.2,97.2,3008.6,121.6,547,2375.8,3016.4,271.5,80.1,20.4
0.137406,548.1,11.5,2392.9,111.2,2998.1,102.7,551.8,2363.1,3010.1,272.7,80.2,20.6
0.139406,549.9,11.9,2370.2,121.8,2989.5,87.7,556.5,2351.3,3005,273.8,80.3,20.2
0.141406,552.1,12.6,2341.9,119.3,2984.2,78.0,561,2340.7,3000.9,274.9,80.2,19.5
0.143406,554.3,13.3,2317.9,108.0,2982.4,74.9,565.2,2331.1,2997.8,275.9,80.1,18.7
0.145406,556.2,14.1,2298.8,95.0,2985.0,79.7,568.9,2322.9,2995.5,277,80,18.2
0.147406,557.4,14.7,2283.8,84.1,2990.9,92.8,572.3,2316,2994,278,79.8,18.3
0.149406,558.5,15.0,2271.9,74.8,2998.3,113.6,575,2310.5,2992.9,279,79.6,19
0.151406,559.9,15.5,2265.6,69.4,3002.6,134.6,577.2,2306.5,2992.3,280,79.4,20
0.153406,561.7,16.0,2264.7,69.1,3000.9,151.8,578.7,2304,2991.9,281,79.2,21
0.155406,563.7,16.8,2269.4,74.7,2992.2,168.7,579.5,2303,2991.5,281.9,79,21.8
0.157406,566.0,17.4,2279.0,83.0,2979.8,188.2,579.4,2303.5,2991.1,282.8,78.7,22.1
0.159406,568.7,18.1,2291.9,85.9,2970.5,214.2,578.6,2305.5,2990.4,283.7,78.5,22.1
0.161406,571.4,18.8,2301.5,77.4,2973.2,241.7,577,2308.9,2989.3,284.6,78.3,21.8
0.163406,573.9,19.2,2306.4,64.2,2987.4,258.0,574.5,2313.7,2987.7,285.5,78.1,21.5
0.165406,575.9,19.4,2310.2,55.5,3006.4,260.2,571.2,2319.7,2985.4,286.3,78,21
0.167406,576.9,19.9,2316.5,55.7,3017.2,267.4,567.2,2327,2982.6,287.1,77.8,20.7
0.169406,577.2,20.8,2329.6,63.7,3014.2,299.3,562.4,2335.3,2979,287.9,77.6,20.4
0.171406,577.3,22.2,2350.9,73.9,3000.8,362.6,556.9,2344.6,2974.6,288.7,77.2,20
0.173406,576.9,24.5,2376.0,78.0,2988.2,450.4,550.8,2354.8,2969.5,289.5,76.8,19.5
0.175406,575.3,28.6,2396.4,75.2,2983.4,533.3,544.2,2365.6,2963.7,290.2,76.3,18.7
0.177406,571.5,35.6,2410.0,74.7,2976.1,566.3,537.2,2376.9,2957.3,290.9,75.6,17.5
0.179406,563.7,47.8,2422.0,81.7,2952.5,534.1,529.9,2388.5,2950.3,291.6,74.9,15.6
0.181406,549.1,67.6,2432.6,93.8,2926.7,466.4,522.3,2400.3,2942.9,292.3,74.1,13.3
0.183406,521.5,98.0,2443.1,108.1,2913.5,412.5,514.6,2412.1,2935.1,292.9,73.5,11.2
0.185406,479.6,127.1,2455.0,127.5,2909.5,387.9,507,2423.8,2927.1,293.5,73.2,9.7
0.187406,454.7,137.9,2467.4,152.8,2907.2,375.8,499.5,2435,2919.1,294.1,73,9.1
0.189406,457.7,142.4,2480.8,188.7,2901.9,356.1,492.3,2445.8,2911.2,294.6,73,9.6
0.191406,469.2,139.7,2493.6,240.2,2892.3,333.0,485.4,2455.9,2903.6,295.2,73.1,10.6
0.193406,476.0,133.1,2508.1,317.8,2880.1,316.0,479.1,2465.2,2896.5,295.6,73,11.8
0.195406,476.7,126.8,2526.0,427.7,2865.9,308.6,473.4,2473.6,2889.9,296.1,72.7,12.8
0.197406,473.9,121.7,2539.6,517.3,2857.7,319.4,468.3,2480.9,2884.1,296.5,72.2,14.3
0.199406,469.9,116.5,2528.9,501.0,2866.6,365.2,464.1,2487,2879.1,296.9,71.4,20.3
0.201406,466.0,113.6,2485.2,415.1,2885.3,403.0,460.7,2491.9,2875.1,297.2,70.4,27
0.203406,460.5,117.7,2431.0,352.5,2885.6,381.4,458.3,2495.4,2872.2,297.5,69,29.4
0.205406,452.2,130.4,2371.8,300.4,2885.0,292.5,456.8,2497.5,2870.5,297.8,67.4,22.3
0.207406,445.4,147.8,2331.9,243.5,2904.4,216.7,456.3,2498.2,2869.9,298.1,65.5,-7.7
