time,f1,b1,f2,b2,f3,b3,f1p,f2p,f3p,f0,intensity,harmonicity
0.025073,454.8,38.5,2496.5,209.0,3405.3,450.2,474,2484.9,3332.7,226.2,79.3,4.7
0.027073,455.9,27.6,2500.0,231.1,3472.2,492.8,475.2,2482.8,3329.7,225.3,80.4,7
0.029073,457.0,24.0,2509.0,277.5,3514.2,539.9,477.4,2479.5,3324.7,224.4,81.3,9.2
0.031073,458.4,24.6,2529.5,350.4,3482.9,648.7,480.4,2474.8,3317.8,223.4,82,11.5
0.033073,460.6,27.4,2551.3,431.3,3372.8,779.8,484.2,2468.8,3309,222.4,82.5,13.8
0.035073,463.5,30.8,2544.2,512.7,3225.9,788.8,488.8,2461.6,3298.5,221.3,82.9,15.6
0.037073,467.6,34.3,2486.2,558.4,3126.7,669.9,494.1,2453.2,3286.3,220.1,83.1,16.7
0.039073,473.6,39.1,2422.0,515.2,3102.2,611.1,500.2,2443.7,3272.6,218.9,83.3,16.6
0.041073,484.3,48.3,2387.1,440.1,3123.0,664.8,506.9,2433.1,3257.4,217.6,83.4,15
0.043073,504.2,63.6,2370.2,375.3,3183.5,733.2,514.3,2421.6,3240.9,216.3,83.6,12.6
0.045073,533.6,78.3,2358.8,344.1,3228.3,681.3,522.3,2409.2,3223.3,215,83.8,10.1
0.047073,568.0,82.0,2350.1,342.6,3225.6,572.6,530.8,2396,3204.7,213.6,84.1,8.1
0.049073,595.0,73.2,2342.4,361.3,3197.5,499.4,539.7,2382.1,3185.3,212.3,84.5,7.3
0.051073,610.5,61.3,2332.5,388.1,3161.5,468.7,549.1,2367.6,3165.3,210.9,85,7.2
0.053073,617.4,52.5,2319.1,411.3,3123.8,459.8,558.8,2352.7,3144.8,209.5,85.5,7.6
0.055073,619.6,47.3,2303.9,426.4,3090.3,450.9,568.8,2337.3,3123.9,208.1,86,8.2
0.057073,619.9,44.6,2290.4,431.8,3066.8,428.5,579,2321.6,3103,206.7,86.3,8.7
0.059073,619.8,44.0,2284.5,424.0,3058.6,394.4,589.3,2305.7,3082.1,205.3,86.5,8.8
0.061073,619.9,46.0,2284.7,410.1,3057.7,361.3,599.8,2289.8,3061.4,203.9,86.6,8.6
0.063073,620.0,50.8,2284.2,405.7,3053.7,343.7,610.3,2273.8,3041.1,202.6,86.5,8.4
0.065073,619.4,59.2,2279.1,414.2,3041.9,343.6,620.8,2257.9,3021.3,201.2,86.2,8.2
0.067073,618.9,73.2,2267.3,420.0,3018.0,351.7,631.2,2242.2,3002.1,199.9,85.8,7.9
0.069073,621.0,93.0,2247.2,402.3,2979.4,352.7,641.4,2226.7,2983.8,198.7,85.3,7.7
0.071073,628.7,114.3,2221.1,365.6,2934.3,332.8,651.5,2211.6,2966.3,197.5,84.8,7.4
0.073073,640.8,128.0,2195.5,328.1,2900.5,299.5,661.3,2196.8,2949.8,196.3,84.5,7.2
0.075073,651.9,129.2,2174.3,302.7,2884.0,271.7,670.8,2182.5,2934.4,195.2,84.3,7
0.077073,660.7,123.3,2154.3,290.4,2876.5,251.7,680,2168.7,2920.1,194.1,84.3,7
0.079073,668.7,117.5,2134.2,291.7,2871.6,236.7,688.8,2155.4,2907,193,84.5,7.4
0.081073,677.6,115.6,2114.5,305.2,2867.3,225.1,697.3,2142.8,2895.1,192.1,84.7,8.2
0.083073,688.1,116.7,2099.5,328.3,2864.4,218.8,705.3,2130.7,2884.5,191.1,85,9.3
0.085073,699.4,118.6,2093.7,356.3,2862.6,219.0,712.8,2119.3,2875.2,190.2,85.2,10.3
0.087073,710.7,120.4,2095.4,385.4,2861.0,223.9,719.9,2108.6,2867.1,189.4,85.4,11
0.089073,719.8,123.0,2099.1,406.7,2861.2,230.1,726.6,2098.5,2860.2,188.6,85.5,11.1
0.091073,727.2,127.3,2099.3,411.8,2865.9,234.3,732.7,2089.1,2854.5,187.8,85.5,10.5
0.093073,734.5,132.1,2094.7,396.8,2875.6,234.8,738.4,2080.4,2850,187.1,85.5,9.6
0.095073,742.4,136.1,2089.3,367.6,2888.1,233.7,743.6,2072.3,2846.5,186.4,85.4,8.7
0.097073,751.3,141.0,2085.7,331.2,2902.2,233.8,748.3,2064.8,2844.1,185.8,85.1,8
0.099073,760.9,149.8,2083.7,297.7,2914.5,235.8,752.5,2058,2842.5,185.2,84.8,7.8
0.101073,769.3,163.2,2082.4,272.8,2921.0,238.7,756.3,2051.7,2841.8,184.7,84.5,8
0.103073,773.9,179.0,2081.6,258.6,2919.5,243.1,759.7,2046,2841.8,184.2,84.2,8.3
0.105073,774.4,193.9,2080.4,254.4,2912.1,249.4,762.7,2040.9,2842.5,183.7,83.9,8.8
0.107073,774.1,206.8,2077.5,258.2,2901.9,256.5,765.3,2036.2,2843.7,183.2,83.7,9.4
0.109073,774.8,215.5,2072.6,267.5,2890.2,261.2,767.5,2032,2845.3,182.8,83.6,9.9
0.111073,774.8,218.1,2066.7,279.4,2876.0,258.0,769.5,2028.3,2847.3,182.4,83.5,10.6
0.113073,772.2,214.7,2059.3,292.2,2859.2,243.0,771.1,2024.9,2849.5,182.1,83.5,11.4
0.115073,767.9,209.5,2050.1,304.4,2843.7,220.4,772.6,2022,2851.8,181.7,83.4,12.2
0.117073,763.3,207.0,2038.2,315.0,2833.4,196.6,773.7,2019.3,2854.2,181.4,83.4,12.8
0.119073,759.8,210.8,2024.4,322.8,2830.3,176.9,774.8,2017,2856.6,181.1,83.3,13.2
0.121073,757.5,224.0,2010.1,330.2,2832.2,160.5,775.6,2015,2858.8,180.9,83.2,13.4
0.123073,757.9,248.9,1997.2,341.2,2835.8,146.8,776.4,2013.3,2860.9,180.6,83,13.5
0.125073,762.2,285.8,1986.7,356.8,2838.5,137.5,777.1,2011.8,2862.6,180.4,82.8,13.6
0.127073,769.9,333.8,1977.4,371.7,2839.7,132.7,777.7,2010.5,2864.1,180.2,82.6,13.6
0.129073,777.8,379.7,1970.4,377.1,2839.1,133.2,778.3,2009.4,2865.3,180,82.4,13.8
0.131073,784.3,414.2,1966.1,374.8,2837.1,138.5,779,2008.5,2866,179.7,82.2,14
0.133073,791.4,437.7,1963.6,373.3,2834.8,145.2,779.7,2007.8,2866.4,179.6,82.1,14.2
0.135073,800.4,452.9,1962.2,376.3,2833.7,148.4,780.4,2007.3,2866.4,179.4,82.1,14.4
0.137073,809.6,461.6,1962.2,383.1,2833.6,147.6,781.3,2007,2865.9,179.2,82.1,14.6
0.139073,812.5,459.0,1964.2,392.2,2833.7,146.5,782.2,2006.9,2865,179,82.2,14.8
0.141073,806.2,439.5,1968.0,403.7,2833.3,148.3,783.3,2006.9,2863.8,178.9,82.3,15.1
0.143073,795.9,405.0,1973.8,417.3,2832.5,153.7,784.5,2007.1,2862.2,178.7,82.4,15.4
0.145073,788.8,367.6,1982.0,428.0,2831.3,161.2,785.8,2007.5,2860.2,178.5,82.6,15.6
0.147073,785.9,334.8,1992.9,431.0,2829.5,170.1,787.3,2008.1,2857.9,178.4,82.7,15.6
0.149073,785.5,312.2,2003.7,424.5,2828.9,178.9,788.9,2008.9,2855.4,178.2,82.8,15.1
0.151073,785.2,297.1,2013.1,409.8,2832.3,186.5,790.7,2009.9,2852.7,178.1,82.8,13.9
0.153073,784.3,286.5,2021.2,388.0,2840.1,193.1,792.6,2011.1,2849.8,177.9,82.8,12.5
0.155073,783.7,279.5,2028.6,361.0,2848.8,199.7,794.6,2012.4,2846.8,177.8,82.7,11.1
0.157073,785.0,273.0,2036.9,328.9,2855.4,209.4,796.7,2014,2843.8,177.7,82.6,10.1
0.159073,788.2,264.1,2045.5,296.9,2858.5,224.6,799,2015.7,2840.8,177.5,82.6,9.9
0.161073,792.0,250.7,2052.2,268.3,2860.1,242.2,801.3,2017.7,2837.8,177.4,82.5,10.3
0.163073,795.3,232.5,2055.9,244.1,2861.4,254.8,803.6,2019.8,2835,177.3,82.5,11.1
0.165073,798.1,214.3,2056.7,227.2,2861.4,257.9,806.1,2022.1,2832.3,177.2,82.4,12.1
0.167073,801.2,200.0,2054.2,219.6,2858.5,251.9,808.5,2024.5,2829.7,177.1,82.4,13
0.169073,805.2,193.4,2048.1,222.6,2852.3,238.9,810.9,2027,2827.5,177,82.4,13.7
0.171073,810.2,196.0,2040.8,233.3,2844.8,224.0,813.3,2029.6,2825.4,176.9,82.3,14.3
0.173073,815.3,206.1,2036.0,247.9,2839.1,214.5,815.6,2032.3,2823.7,176.8,82.2,14.8
0.175073,819.4,218.9,2035.9,264.9,2837.2,216.0,817.8,2035,2822.3,176.8,82.2,15.3
0.177073,822.7,232.3,2040.2,285.1,2838.3,228.5,819.9,2037.8,2821.2,176.7,82.1,15.8
0.179073,824.6,244.4,2047.4,306.9,2839.2,247.8,821.9,2040.4,2820.4,176.6,82,16.3
0.181073,826.0,257.1,2057.0,332.3,2837.3,270.5,823.6,2043,2819.9,176.6,81.9,16.8
0.183073,828.2,274.9,2067.7,361.7,2833.1,294.5,825.2,2045.5,2819.8,176.5,81.7,17.3
0.185073,832.2,297.6,2076.0,386.9,2830.8,315.1,826.5,2047.8,2819.9,176.5,81.6,17.6
0.187073,838.6,325.1,2079.7,403.5,2832.5,329.6,827.6,2049.9,2820.2,176.5,81.4,17.8
0.189073,845.1,354.5,2076.9,412.9,2835.8,331.0,828.5,2051.7,2820.8,176.5,81.3,17.6
0.191073,847.5,378.0,2067.9,418.9,2836.9,315.0,829,2053.1,2821.6,176.5,81.2,16.8
0.193073,843.9,388.9,2055.3,421.7,2835.6,288.4,829.2,2054.2,2822.6,176.4,81.1,15.9
0.195073,837.5,390.4,2042.9,421.9,2832.8,265.3,829.1,2054.9,2823.6,176.4,81.1,14.9
0.197073,831.4,388.7,2032.2,419.6,2828.1,252.4,828.7,2055.1,2824.7,176.4,81.2,14.3
0.199073,826.9,387.3,2024.5,414.5,2822.1,252.5,827.9,2054.8,2825.8,176.4,81.2,14.3
0.201073,822.5,384.9,2020.4,408.9,2816.5,263.5,826.8,2054,2826.8,176.5,81.3,14.9
0.203073,817.2,378.5,2019.8,406.7,2812.8,282.0,825.3,2052.6,2827.8,176.5,81.5,15.7
0.205073,811.7,370.3,2020.8,407.9,2810.8,303.9,823.4,2050.6,2828.6,176.5,81.6,16.7
0.207073,806.9,363.1,2021.5,408.4,2809.1,326.2,821.2,2047.9,2829.2,176.5,81.7,17.6
0.209073,803.8,357.7,2020.2,404.9,2806.6,342.7,818.7,2044.6,2829.5,176.5,81.8,18.2
0.211073,801.6,352.4,2016.4,396.3,2804.2,347.6,815.9,2040.6,2829.6,176.5,81.9,18.8
0.213073,798.8,342.1,2010.7,380.3,2804.5,335.6,812.7,2036,2829.3,176.5,82,19.3
0.215073,795.4,326.2,2004.4,358.5,2807.3,310.3,809.2,2030.7,2828.7,176.5,82.1,19.8
0.217073,791.7,309.2,1998.6,335.2,2810.4,281.1,805.4,2024.7,2827.7,176.5,82.2,20.2
0.219073,788.6,296.2,1994.9,316.9,2812.2,259.2,801.4,2018.1,2826.3,176.5,82.2,20.5
0.221073,786.3,287.7,1993.2,304.2,2812.9,246.5,797.1,2011,2824.4,176.5,82.3,20.9
0.223073,784.3,282.4,1991.9,294.0,2812.3,239.9,792.6,2003.2,2822.2,176.5,82.3,21.3
0.225073,782.0,278.8,1989.9,285.2,2810.3,237.2,787.9,1994.9,2819.5,176.4,82.4,21.5
0.227073,779.2,276.9,1986.2,277.2,2807.0,237.7,783.1,1986.2,2816.5,176.4,82.4,21.6
0.229073,776.3,277.9,1981.3,270.4,2803.6,240.6,778.2,1977,2813,176.4,82.5,21.4
0.231073,774.5,281.8,1976.7,265.5,2801.9,245.7,773.1,1967.5,2809.2,176.4,82.5,20.7
0.233073,774.1,288.5,1973.3,263.2,2802.6,253.3,768,1957.6,2805,176.3,82.5,19.9
0.235073,774.2,294.4,1971.4,262.3,2804.5,260.1,762.9,1947.6,2800.6,176.3,82.5,19
0.237073,773.7,295.4,1970.0,261.6,2805.0,261.5,757.8,1937.5,2795.9,176.3,82.5,18.5
0.239073,772.5,293.8,1967.5,261.9,2803.5,256.8,752.8,1927.3,2791.1,176.2,82.4,18.5
0.241073,770.5,293.7,1962.7,263.0,2801.3,249.2,747.8,1917.1,2786,176.2,82.4,19.1
0.243073,767.6,294.7,1954.7,262.5,2799.3,241.4,743,1907.1,2780.9,176.2,82.4,19.9
0.245073,763.9,295.5,1944.3,259.3,2797.3,235.0,738.3,1897.2,2775.8,176.1,82.4,20.7
0.247073,759.3,294.9,1931.9,253.6,2794.3,230.3,733.8,1887.7,2770.8,176.1,82.3,21.1
0.249073,755.0,294.1,1919.1,247.7,2789.7,229.5,729.6,1878.6,2765.8,176,82.2,20.8
0.251073,751.2,297.1,1906.2,243.4,2783.0,235.3,725.6,1869.9,2761,176,82.2,19.8
0.253073,747.9,304.7,1893.0,241.4,2773.8,247.3,721.8,1861.8,2756.5,175.9,82,18.5
0.255073,744.5,315.9,1878.9,241.3,2761.2,259.5,718.4,1854.3,2752.2,175.9,81.9,17
0.257073,739.1,329.6,1861.9,241.2,2744.1,259.0,715.4,1847.5,2748.3,175.9,81.8,15.3
0.259073,729.7,339.6,1843.1,237.0,2729.0,227.6,712.7,1841.5,2744.8,175.8,81.6,13.7
0.261073,716.5,346.4,1824.4,228.8,2724.2,175.1,710.4,1836.3,2741.8,175.8,81.3,11.9
0.263073,700.9,361.3,1807.0,222.5,2727.5,131.8,708.4,1832,2739.2,175.8,81,10
0.265073,684.0,391.4,1791.2,220.7,2731.4,108.5,706.9,1828.6,2737.2,175.7,80.6,8
0.267073,664.2,446.2,1773.9,223.7,2732.5,98.8,705.8,1826.1,2735.7,175.7,80.1,6.1
0.269073,642.9,522.3,1755.9,231.1,2730.1,97.4,705.2,1824.6,2734.8,175.7,79.4,4.4
0.271073,630.1,561.0,1745.2,239.2,2727.6,97.7,705,1824.1,2734.5,175.6,78.6,2.7
