time,f1,b1,f2,b2,f3,b3,f1p,f2p,f3p,f0,intensity,harmonicity
0.025519,380.4,108.6,2611.8,111.4,3289.0,151.1,411.5,2687.6,3441.3,107.9,66.2,12
0.027519,385.2,104.1,2605.7,105.6,3300.3,200.6,410.9,2687.6,3442.1,110.2,66.3,12.9
0.029519,393.6,111.9,2607.9,108.4,3324.4,274.4,409.9,2687.7,3443.4,112.8,66.4,12.5
0.031519,405.8,127.2,2620.7,118.8,3359.4,326.4,408.5,2687.7,3445.2,115.5,66.4,11.6
0.033519,420.4,145.6,2642.0,132.7,3391.8,327.4,406.8,2687.8,3447.5,118.4,66.3,10.7
0.035519,432.6,169.6,2666.8,147.9,3414.7,303.7,404.7,2687.9,3450.3,121.5,66.2,10.2
0.037519,436.7,199.9,2687.9,163.6,3426.6,286.7,402.2,2688,3453.6,124.8,66.1,10.2
0.039519,433.0,231.4,2702.0,177.2,3429.7,292.1,399.4,2688.1,3457.3,128.2,66,10.8
0.041519,427.5,253.6,2708.8,178.9,3436.5,329.2,396.3,2688.3,3461.4,131.8,66,11.7
0.043519,424.5,266.5,2711.6,163.6,3463.1,389.5,392.9,2688.5,3466,135.4,66.1,12.7
0.045519,424.3,271.7,2710.3,139.8,3505.2,441.6,389.2,2688.7,3470.9,139.2,66.2,13.6
0.047519,425.8,270.7,2706.2,121.2,3538.0,468.5,385.2,2688.9,3476.2,143,66.4,14.4
0.049519,428.5,268.6,2702.8,110.0,3555.4,484.5,381,2689.2,3481.7,146.8,66.6,15.2
0.051519,432.9,266.9,2701.1,105.6,3551.1,502.1,376.7,2689.5,3487.5,150.6,66.8,16
0.053519,436.0,263.1,2700.9,106.7,3521.8,534.4,372.1,2689.9,3493.6,154.4,67.1,16.8
0.055519,431.1,261.5,2702.9,110.2,3491.3,577.1,367.4,2690.3,3499.9,158.1,67.3,17.5
0.057519,416.2,262.5,2707.3,111.3,3483.7,608.0,362.6,2690.7,3506.3,161.8,67.6,18.2
0.059519,393.9,256.8,2712.8,107.6,3492.3,601.0,357.7,2691.2,3512.9,165.3,67.9,18.8
0.061519,370.5,240.8,2718.4,98.8,3506.0,545.9,352.8,2691.7,3519.5,168.8,68.2,19.4
0.063519,347.9,221.6,2723.9,86.6,3520.4,470.9,347.8,2692.3,3526.2,172.1,68.5,19.9
0.065519,324.2,205.5,2727.5,75.4,3529.5,413.1,342.9,2692.9,3532.8,175.2,68.8,20.6
0.067519,300.1,188.9,2729.3,68.1,3533.1,390.8,338,2693.5,3539.5,178.1,69.2,21.2
0.069519,279.7,166.4,2731.2,63.3,3538.9,396.7,333.1,2694.3,3546,180.9,69.6,22
0.071519,268.2,146.3,2733.2,59.5,3549.1,409.1,328.4,2695,3552.4,183.5,70,22.8
0.073519,264.4,134.2,2734.1,56.3,3548.5,402.6,323.8,2695.8,3558.6,185.9,70.4,23.6
0.075519,265.7,128.3,2733.6,55.9,3533.8,379.2,319.4,2696.7,3564.7,188.2,70.9,24.4
0.077519,270.1,126.1,2730.2,59.7,3517.9,369.9,315.2,2697.6,3570.4,190.2,71.3,25.2
0.079519,276.6,124.6,2719.4,67.3,3509.8,382.9,311.2,2698.6,3575.9,192.1,71.7,26.1
0.081519,280.2,122.5,2699.8,76.4,3532.5,413.6,307.4,2699.6,3581.1,193.9,72.1,27
0.083519,278.5,121.1,2675.0,87.4,3596.2,456.3,304,2700.7,3585.9,195.5,72.5,27.9
0.085519,271.1,119.0,2653.7,103.5,3675.0,489.7,300.8,2701.8,3590.3,196.9,72.9,28.5
0.087519,261.2,112.4,2646.0,121.4,3725.1,509.6,297.9,2702.9,3594.3,198.3,73.2,28.8
0.089519,253.4,102.0,2651.7,128.6,3740.1,528.5,295.4,2704.1,3597.8,199.5,73.6,28.8
0.091519,249.2,92.1,2662.3,120.2,3739.2,531.3,293.2,2705.3,3600.9,200.7,73.8,28.6
0.093519,247.1,83.6,2673.7,109.2,3754.4,500.3,291.4,2706.5,3603.5,201.7,74.1,28.2
0.095519,245.2,76.8,2688.3,105.6,3787.7,437.5,289.9,2707.8,3605.6,202.7,74.3,27.9
0.097519,242.4,71.8,2705.4,111.6,3802.8,377.1,288.9,2709,3607.1,203.7,74.5,27.7
0.099519,238.9,67.6,2718.1,125.6,3782.5,344.8,288.2,2710.3,3608.1,204.6,74.7,27.4
0.101519,237.3,64.9,2718.1,144.8,3732.8,336.1,288,2711.5,3608.5,205.4,74.8,27.1
0.103519,238.9,63.9,2710.0,170.7,3678.9,330.2,288.1,2712.8,3608.3,206.3,74.9,26.9
0.105519,242.4,63.6,2709.5,215.8,3644.6,335.9,288.7,2714,3607.6,207.1,75,26.6
0.107519,245.7,64.2,2739.8,289.5,3633.0,366.8,289.6,2715.3,3606.3,207.9,75,26.4
0.109519,249.1,66.9,2806.0,355.6,3630.9,420.6,291,2716.4,3604.4,208.7,75,26.3
0.111519,252.8,71.4,2846.4,358.3,3631.6,458.8,292.7,2717.6,3602,209.5,74.9,26.2
0.113519,257.5,77.2,2841.6,335.7,3631.7,465.8,294.8,2718.7,3598.9,210.4,74.8,26
0.115519,264.8,83.9,2818.9,312.4,3638.2,455.9,297.3,2719.7,3595.3,211.2,74.6,25.6
0.117519,275.4,90.8,2795.4,295.6,3651.3,440.0,300.1,2720.6,3591.2,212,74.4,25.1
0.119519,290.6,96.6,2768.5,284.9,3661.3,424.1,303.3,2721.5,3586.5,212.9,74,24.4
0.121519,309.8,98.2,2733.9,273.7,3654.4,412.5,306.8,2722.3,3581.4,213.8,73.5,23.5
0.123519,330.9,95.9,2701.0,263.5,3621.8,402.3,310.6,2722.9,3575.7,214.6,72.9,22.5
0.125519,352.2,93.5,2683.4,272.7,3558.9,383.1,314.6,2723.5,3569.5,215.5,72.2,21.1
0.127519,373.2,91.4,2679.5,300.9,3489.5,346.7,318.9,2723.9,3562.9,216.4,71.4,19.3
0.129519,396.0,87.0,2683.3,314.0,3444.2,311.0,323.5,2724.2,3555.9,217.4,70.3,16.8
0.131519,418.4,79.5,2692.8,275.6,3439.7,306.9,328.2,2724.4,3548.5,218.3,69.2,13.9
0.133519,437.7,70.2,2702.9,205.7,3471.9,340.4,333.1,2724.4,3540.7,219.2,68.1,11.1
0.135519,451.1,60.8,2708.8,145.2,3525.7,396.4,338.2,2724.3,3532.6,220.2,67.2,8.8
0.137519,457.3,55.0,2710.9,111.3,3563.4,438.1,343.4,2723.9,3524.2,221.2,66.8,7.4
0.139519,456.9,53.4,2709.6,98.4,3551.2,441.9,348.6,2723.4,3515.5,222.1,67.2,6.6
0.141519,449.7,51.9,2702.6,100.9,3495.9,417.6,353.9,2722.8,3506.6,223.1,68,6.3
0.143519,438.6,50.4,2689.8,112.3,3435.8,399.2,359.3,2721.9,3497.5,224.1,69,6.3
0.145519,426.6,51.8,2677.2,129.0,3391.7,425.6,364.6,2720.8,3488.3,225.1,70,6.8
0.147519,415.9,56.9,2673.9,148.4,3360.2,524.3,369.9,2719.5,3478.9,226.1,70.8,7.8
0.149519,406.2,65.6,2684.5,168.5,3325.6,733.6,375.2,2718.1,3469.4,227.1,71.5,9.7
0.151519,397.8,76.5,2704.8,179.8,3281.4,1070.5,380.3,2716.4,3459.9,228.2,71.9,12
0.153519,391.2,87.4,2720.7,184.3,3228.1,1476.0,385.4,2714.5,3450.3,229.2,72.1,14.3
0.155519,387.4,94.4,2724.6,212.5,3162.4,1708.0,390.3,2712.3,3440.8,230.2,72.2,16.3
0.157519,387.5,94.9,2718.3,299.2,3107.9,1549.6,395,2710,3431.3,231.3,72.1,17.3
0.159519,390.2,92.7,2687.0,461.0,3110.1,1160.3,399.5,2707.4,3421.8,232.3,71.9,17.7
0.161519,393.6,91.9,2633.2,542.3,3168.7,906.7,403.9,2704.6,3412.5,233.3,71.5,17.7
0.163519,396.6,92.3,2617.4,478.8,3217.6,856.9,407.9,2701.6,3403.4,234.4,71.2,17.6
0.165519,398.1,93.4,2618.6,363.6,3264.1,892.7,411.8,2698.4,3394.4,235.5,70.8,17.6
0.167519,397.0,95.4,2618.6,275.8,3312.5,943.8,415.3,2694.9,3385.5,236.5,70.6,17.9
0.169519,392.8,97.8,2617.7,222.8,3364.9,985.5,418.5,2691.3,3376.9,237.6,70.4,18.4
0.171519,386.7,98.6,2619.7,197.3,3409.4,989.3,421.5,2687.4,3368.6,238.7,70.5,19.1
0.173519,381.1,96.3,2627.7,183.1,3433.7,967.7,424.1,2683.3,3360.5,239.8,70.6,19.7
0.175519,377.8,91.9,2640.5,169.6,3439.6,975.3,426.4,2679.1,3352.7,240.9,70.7,20.1
0.177519,376.7,88.5,2651.9,159.7,3432.2,1030.8,428.4,2674.6,3345.1,242,70.9,20.2
0.179519,377.6,88.0,2658.9,159.3,3415.8,1083.7,430.1,2670,3337.9,243.1,70.9,19.9
0.181519,380.8,90.1,2660.7,167.3,3408.4,1047.3,431.4,2665.2,3330.9,244.2,70.8,19.4
0.183519,386.3,93.9,2662.1,171.0,3419.1,950.3,432.3,2660.3,3324.3,245.3,70.6,18.8
0.185519,393.4,97.9,2667.8,168.2,3431.0,863.5,433,2655.1,3318,246.5,70.3,18.3
0.187519,401.4,100.0,2675.7,172.0,3430.6,796.3,433.2,2649.9,3312.1,247.6,69.9,18.1
0.189519,410.1,99.4,2683.5,196.2,3414.1,720.2,433.2,2644.5,3306.4,248.7,69.5,18
0.191519,418.3,97.4,2687.1,254.9,3384.3,623.4,432.9,2639,3301.1,249.8,69,18
0.193519,424.9,96.5,2678.8,348.2,3355.8,510.2,432.2,2633.4,3296.1,250.9,68.7,18
0.195519,430.8,95.5,2656.0,410.9,3350.6,404.5,431.3,2627.6,3291.4,252.1,68.4,17.8
0.197519,437.5,91.0,2638.4,393.5,3366.7,334.6,430.1,2621.8,3287,253.2,68.2,17.4
0.199519,445.3,83.8,2634.7,356.9,3390.9,296.0,428.6,2616,3282.9,254.3,68.1,16.6
0.201519,452.5,77.4,2641.4,354.0,3412.5,291.8,426.9,2610,3279,255.4,68,15.6
0.203519,457.9,73.9,2654.2,389.2,3426.0,324.4,425,2604,3275.4,256.4,68,14.7
0.205519,459.5,74.2,2668.9,443.4,3434.2,405.6,422.9,2598,3272.1,257.5,68.3,14.1
0.207519,456.2,78.5,2678.4,496.4,3443.8,552.9,420.6,2591.9,3268.9,258.6,68.8,13.9
0.209519,447.4,87.0,2680.1,551.9,3453.8,807.8,418.2,2585.8,3266,259.6,69.4,14
0.211519,434.6,98.2,2683.8,616.0,3442.7,1175.2,415.6,2579.7,3263.2,260.6,70.1,14.3
0.213519,419.3,110.0,2712.7,669.5,3373.5,1600.6,413,2573.6,3260.6,261.7,70.7,14.9
0.215519,404.2,118.6,2750.4,661.7,3258.0,1863.4,410.3,2567.5,3258.1,262.6,71.3,15.5
0.217519,392.2,121.2,2746.3,672.6,3159.0,1608.3,407.5,2561.4,3255.6,263.6,71.8,16.3
0.219519,383.7,119.1,2640.1,756.4,3152.8,952.3,404.7,2555.4,3253.3,264.6,72.2,17.5
0.221519,379.2,114.7,2514.6,644.4,3199.0,555.3,402,2549.3,3251,265.5,72.5,18.9
0.223519,375.8,111.4,2466.4,524.1,3218.1,380.8,399.2,2543.3,3248.7,266.4,72.7,20.2
0.225519,370.5,111.2,2461.2,458.9,3234.9,330.8,396.6,2537.4,3246.4,267.3,72.8,21.1
0.227519,364.8,111.5,2468.3,408.8,3253.2,340.1,394,2531.5,3244,268.2,72.8,21.4
0.229519,360.5,111.0,2471.9,337.0,3274.0,379.7,391.6,2525.6,3241.6,269,72.8,21.1
0.231519,356.9,110.3,2471.3,262.8,3296.4,462.0,389.3,2519.8,3239.1,269.8,72.7,20.5
0.233519,353.5,109.2,2470.1,204.8,3319.4,616.0,387.2,2514,3236.5,270.6,72.5,19.8
0.235519,350.3,107.5,2470.6,165.0,3334.4,852.7,385.2,2508.2,3233.7,271.4,72.3,19.3
0.237519,348.1,106.3,2472.0,142.5,3318.8,1068.9,383.5,2502.5,3230.7,272.1,72.2,19.4
0.239519,348.2,107.3,2471.4,135.5,3262.8,1080.9,382,2496.9,3227.6,272.9,72.1,19.8
0.241519,352.1,110.8,2468.2,141.5,3209.6,884.1,380.8,2491.2,3224.2,273.5,71.9,20.4
0.243519,359.7,114.4,2466.4,156.7,3179.0,662.4,379.8,2485.6,3220.6,274.2,71.8,21.1
0.245519,370.6,117.0,2471.0,183.8,3158.1,500.5,379.1,2480,3216.7,274.8,71.7,21.5
0.247519,382.9,118.8,2482.3,223.0,3140.3,403.5,378.7,2474.4,3212.6,275.4,71.5,21.6
0.249519,396.0,119.4,2495.3,271.2,3124.3,338.9,378.6,2468.9,3208.2,275.9,71.3,21.3
0.251519,406.5,118.8,2498.8,312.7,3111.1,282.6,378.8,2463.3,3203.5,276.5,71.2,20.8
0.253519,413.2,117.7,2486.5,334.3,3099.7,221.9,379.4,2457.6,3198.5,276.9,71.1,20.3
0.255519,415.4,117.1,2461.0,334.8,3089.7,164.2,380.3,2452,3193.2,277.4,71.1,20
0.257519,413.7,117.8,2430.3,329.0,3082.9,122.4,381.5,2446.2,3187.5,277.8,71.2,20.2
0.259519,408.3,119.5,2396.7,335.8,3079.3,94.9,383,2440.5,3181.5,278.2,71.4,20.8
0.261519,401.3,120.7,2362.9,363.4,3078.1,77.6,384.9,2434.6,3175.2,278.5,71.6,21.6
0.263519,395.5,120.3,2331.3,402.3,3078.0,63.9,387,2428.6,3168.6,278.9,71.9,22.4
0.265519,392.8,118.8,2311.5,430.7,3078.0,53.6,389.5,2422.5,3161.6,279.1,72.2,23
0.267519,393.8,116.9,2312.8,434.8,3077.4,49.1,392.4,2416.3,3154.4,279.4,72.4,23
0.269519,399.1,114.1,2325.5,418.9,3074.9,48.9,395.5,2409.9,3146.8,279.6,72.5,22.6
0.271519,408.3,110.1,2335.5,403.7,3071.1,50.2,398.8,2403.3,3138.9,279.8,72.6,21.8
0.273519,418.4,107.1,2342.0,417.2,3067.8,53.6,402.5,2396.5,3130.7,280,72.5,21.1
0.275519,428.1,105.8,2347.9,462.4,3067.0,59.1,406.4,2389.6,3122.2,280.1,72.5,20.7
0.277519,436.5,105.4,2355.7,520.5,3068.8,65.4,410.6,2382.4,3113.5,280.2,72.3,21
0.279519,443.5,105.7,2365.0,573.0,3071.3,71.3,414.9,2374.9,3104.5,280.2,72.2,21.8
0.281519,448.9,106.6,2368.7,603.0,3072.8,75.4,419.5,2367.2,3095.3,280.3,72.1,23
0.283519,452.9,107.8,2361.6,613.6,3073.6,77.9,424.2,2359.2,3085.8,280.3,72,24.3
0.285519,456.5,108.1,2346.7,606.1,3074.9,79.7,429.1,2350.9,3076.2,280.2,71.9,25.4
0.287519,460.2,106.5,2331.2,581.5,3076.3,80.0,434.1,2342.3,3066.4,280.2,71.8,26.1
0.289519,464.1,103.3,2318.1,552.6,3075.5,77.4,439.2,2333.3,3056.5,280.1,71.7,26.7
0.291519,467.6,100.4,2309.5,539.2,3070.6,72.8,444.4,2324,3046.5,280,71.7,27.1
0.293519,470.4,99.2,2305.7,542.7,3063.1,69.8,449.6,2314.3,3036.3,279.9,71.6,27.4
0.295519,473.1,99.5,2307.8,551.7,3055.2,70.5,454.9,2304.3,3026.1,279.7,71.6,27.6
0.297519,475.6,100.0,2314.4,557.2,3048.4,74.3,460.2,2293.9,3015.9,279.5,71.5,27.7
0.299519,478.0,100.3,2323.0,561.9,3042.7,79.8,465.4,2283.1,3005.6,279.3,71.5,27.5
0.301519,479.8,99.9,2330.4,566.7,3037.2,86.1,470.5,2271.8,2995.4,279.1,71.6,27.2
0.303519,481.5,98.5,2334.5,560.5,3028.8,93.2,475.6,2260.2,2985.2,278.8,71.6,27
0.305519,483.3,95.8,2332.8,531.3,3015.3,100.0,480.6,2248.2,2975.1,278.5,71.6,26.8
0.307519,485.2,92.5,2322.1,483.4,2999.5,104.0,485.5,2235.7,2965,278.2,71.7,27
0.309519,487.1,88.9,2301.0,424.0,2984.8,104.8,490.2,2222.9,2955.1,277.8,71.8,27.4
0.311519,489.0,85.1,2276.1,369.5,2974.2,105.3,494.7,2209.6,2945.4,277.5,71.8,27.9
0.313519,490.8,81.3,2255.1,332.6,2964.6,110.3,499,2195.9,2935.8,277.1,71.8,28.4
0.315519,492.5,78.2,2241.1,317.6,2950.0,123.3,503.1,2181.9,2926.4,276.7,71.8,28.8
0.317519,494.0,76.2,2232.8,319.6,2927.8,143.6,507,2167.4,2917.2,276.3,71.8,28.9
0.319519,495.8,74.9,2227.2,331.1,2898.7,168.5,510.6,2152.5,2908.2,275.8,71.8,28.9
0.321519,497.9,73.5,2223.2,349.4,2871.5,188.4,513.9,2137.3,2899.5,275.3,71.7,28.6
0.323519,500.4,72.3,2215.7,379.4,2852.3,194.6,517,2121.7,2891.1,274.8,71.7,28.4
0.325519,502.3,72.7,2190.7,421.1,2841.9,183.5,519.8,2105.8,2883,274.3,71.6,28
0.327519,503.0,75.9,2137.7,443.6,2840.8,160.6,522.3,2089.6,2875.1,273.8,71.6,27.7
0.329519,502.7,80.2,2068.2,413.5,2847.2,138.0,524.4,2073.1,2867.6,273.2,71.5,27.4
0.331519,502.0,83.2,2011.6,355.4,2856.7,128.1,526.3,2056.3,2860.4,272.6,71.5,27
0.333519,501.4,84.7,1970.8,306.4,2868.7,135.3,527.8,2039.3,2853.6,272,71.4,26.6
0.335519,501.5,84.4,1939.0,266.8,2887.5,160.8,529,2022,2847.1,271.4,71.3,26.3
0.337519,502.6,81.9,1916.8,230.1,2913.0,197.0,529.9,2004.6,2840.9,270.8,71.2,25.9
0.339519,504.1,78.6,1904.3,201.4,2929.0,223.8,530.5,1987,2835.1,270.2,71.2,25.5
0.341519,504.9,77.0,1900.6,193.1,2913.2,224.4,530.8,1969.3,2829.7,269.5,71.1,25
0.343519,505.3,76.2,1898.9,200.0,2879.5,215.4,530.8,1951.5,2824.6,268.8,71.1,24.6
0.345519,506.0,74.5,1894.1,215.4,2846.3,209.7,530.5,1933.7,2819.8,268.2,71.1,24.2
0.347519,507.4,71.3,1885.6,235.7,2821.0,206.7,529.9,1915.8,2815.5,267.5,71.2,23.7
0.349519,509.3,66.3,1873.1,262.1,2804.8,207.6,529,1898,2811.4,266.8,71.3,23.2
0.351519,511.4,60.3,1857.3,291.7,2800.2,221.3,527.9,1880.2,2807.7,266.1,71.4,22.7
0.353519,513.4,54.1,1839.0,316.4,2808.4,258.6,526.5,1862.6,2804.3,265.4,71.7,22.2
0.355519,515.0,48.3,1822.4,325.7,2832.7,323.7,524.9,1845.1,2801.3,264.6,71.9,21.9
0.357519,516.0,43.6,1810.8,317.4,2863.8,381.7,523.1,1827.7,2798.5,263.9,72.2,21.9
0.359519,516.4,39.6,1800.3,304.2,2876.0,389.3,521.2,1810.7,2796,263.2,72.5,22.2
0.361519,516.3,36.5,1787.1,295.8,2865.0,366.5,519,1793.9,2793.9,262.5,72.8,22.7
0.363519,516.0,34.0,1769.4,290.5,2847.4,353.4,516.8,1777.4,2792,261.8,73.1,23.3
0.365519,515.3,32.0,1750.0,289.8,2829.0,366.2,514.4,1761.3,2790.3,261,73.4,23.7
0.367519,514.1,30.4,1734.5,299.6,2809.7,405.5,511.9,1745.6,2788.9,260.3,73.7,23.8
0.369519,512.3,29.1,1724.3,328.6,2789.1,451.1,509.3,1730.4,2787.6,259.6,74,23.7
0.371519,510.4,28.2,1718.8,376.2,2777.3,447.5,506.7,1715.6,2786.6,258.9,74.2,23.3
0.373519,509.1,27.8,1716.5,427.8,2781.1,380.7,504.1,1701.4,2785.8,258.2,74.5,23
0.375519,508.5,27.8,1713.4,460.7,2793.7,286.7,501.5,1687.7,2785.1,257.5,74.7,22.9
0.377519,508.3,27.7,1696.8,450.2,2804.0,197.6,498.9,1674.7,2784.6,256.8,74.9,23.1
0.379519,508.0,27.1,1660.9,390.4,2806.9,125.5,496.3,1662.3,2784.2,256.1,75,23.7
0.381519,507.4,26.0,1625.0,308.8,2801.3,81.3,493.8,1650.6,2783.9,255.4,75.1,24.5
0.383519,506.6,24.7,1603.7,240.5,2790.0,58.2,491.4,1639.7,2783.8,254.8,75.2,25.2
0.385519,505.7,23.4,1595.4,197.7,2776.4,48.1,489.1,1629.4,2783.7,254.1,75.3,25.6
0.387519,504.4,22.5,1594.0,176.1,2763.3,45.7,486.9,1620,2783.6,253.5,75.3,25.5
0.389519,502.9,21.8,1594.6,163.8,2751.5,47.8,484.9,1611.4,2783.6,252.9,75.3,25
0.391519,501.1,21.5,1593.4,153.2,2742.5,52.4,483.1,1603.6,2783.7,252.3,75.1,24.2
0.393519,499.1,21.5,1590.2,141.8,2736.0,59.4,481.4,1596.6,2783.8,251.7,74.9,23.2
0.395519,496.6,22.0,1588.3,134.4,2730.7,71.2,479.9,1590.6,2783.8,251.2,74.5,22
0.397519,493.3,23.0,1591.9,140.5,2726.0,92.2,478.6,1585.4,2783.9,250.6,73.9,20.6
0.399519,488.5,24.2,1601.7,175.2,2724.5,129.7,477.6,1581.2,2784,250.1,73.2,18.9
0.401519,483.0,25.1,1610.0,243.5,2728.0,175.0,476.7,1577.9,2784.1,249.6,72.2,17
0.403519,477.9,27.6,1613.6,318.8,2729.8,209.9,476.1,1575.5,2784.1,249.2,71,15
0.405519,473.1,33.4,1626.1,377.0,2730.7,224.6,475.8,1574.1,2784.2,248.7,69.6,13.1
0.407519,467.3,44.0,1647.9,409.6,2739.2,224.6,475.6,1573.6,2784.2,248.3,67.9,11.2
