time,f1,b1,f2,b2,f3,b3,f1p,f2p,f3p,f0,intensity,harmonicity
0.025812,442.6,37.8,2638.3,140.8,3479.8,395.2,445.6,2640,3388,240.4,70.5,-34.1
0.027812,445.9,35.4,2648.1,135.3,3450.1,348.0,445.9,2643.6,3391.1,240.6,71.5,7.3
0.029812,447.7,32.3,2651.8,128.5,3422.9,312.5,446.4,2649.7,3396.3,240.7,72.3,21.5
0.031812,448.9,28.7,2649.7,121.2,3394.9,275.3,447,2658.1,3403.5,240.8,73,24.6
0.033812,449.7,25.7,2647.4,117.0,3373.9,237.6,447.8,2668.6,3412.5,240.9,73.7,21.1
0.035812,450.3,24.0,2652.0,118.1,3366.6,204.5,448.6,2681.1,3423.1,241,74.2,15.9
0.037812,450.5,24.1,2667.0,124.7,3374.5,183.4,449.5,2695.3,3435.3,241.1,74.6,13.7
0.039812,450.5,25.5,2691.5,133.7,3391.7,173.1,450.5,2711.2,3448.7,241.2,75,14.2
0.041812,450.4,27.6,2722.9,142.5,3418.8,176.1,451.4,2728.3,3463.3,241.3,75.3,14.5
0.043812,450.4,29.9,2753.9,147.8,3454.4,188.2,452.3,2746.6,3478.7,241.4,75.5,14.7
0.045812,450.7,31.8,2781.7,150.4,3491.5,200.9,453.1,2765.6,3494.7,241.5,75.7,14.9
0.047812,451.5,32.6,2806.6,153.3,3520.1,211.2,453.7,2785.2,3511.1,241.5,75.9,15.3
0.049812,452.5,32.6,2834.4,156.9,3544.4,221.1,454.2,2805,3527.7,241.5,76,16.2
0.051812,453.7,31.6,2866.8,158.1,3570.2,229.5,454.5,2824.9,3544.4,241.5,76.1,17.3
0.053812,454.7,30.3,2895.5,153.6,3594.1,234.2,454.5,2844.7,3560.8,241.5,76.2,18.5
0.055812,455.4,29.4,2914.3,144.1,3613.1,236.6,454.3,2864,3576.9,241.5,76.3,19.4
0.057812,455.6,29.3,2920.7,133.0,3624.3,238.9,453.9,2882.7,3592.5,241.4,76.5,19.7
0.059812,455.1,30.0,2920.0,121.3,3630.7,239.9,453.3,2900.6,3607.4,241.3,76.6,19.1
0.061812,454.0,31.2,2917.9,109.8,3635.6,237.6,452.4,2917.7,3621.6,241.2,76.6,17.8
0.063812,452.4,32.7,2917.4,100.3,3640.7,233.0,451.3,2933.7,3635,241.1,76.7,16.3
0.065812,450.3,34.3,2918.3,93.5,3645.6,229.1,450,2948.7,3647.6,241,76.8,14.9
0.067812,448.2,35.7,2919.7,90.8,3648.9,230.1,448.6,2962.5,3659.2,240.8,76.8,14.2
0.069812,446.2,36.7,2921.7,93.2,3651.1,238.7,447,2975.1,3669.9,240.6,76.8,14.3
0.071812,444.5,37.5,2926.0,103.3,3653.3,257.8,445.4,2986.6,3679.7,240.4,76.8,14.8
0.073812,443.2,38.3,2936.2,123.1,3657.5,286.9,443.6,2997,3688.6,240.2,76.8,15.6
0.075812,442.1,39.4,2958.4,155.7,3666.4,328.0,441.9,3006.2,3696.4,239.9,76.9,16.5
0.077812,441.0,40.6,2993.6,191.4,3681.5,376.7,440.2,3014.3,3703.4,239.7,76.9,17.2
0.079812,439.5,41.4,3032.6,211.7,3702.0,425.4,438.6,3021.4,3709.4,239.4,77,17.8
0.081812,437.6,42.0,3058.5,206.5,3722.9,458.6,437,3027.7,3714.5,239.1,77.2,18.5
0.083812,435.5,42.7,3067.1,189.8,3735.1,472.8,435.6,3033,3718.7,238.8,77.3,19.1
0.085812,433.4,43.9,3068.3,174.6,3739.6,480.5,434.3,3037.6,3721.9,238.5,77.4,19.7
0.087812,431.9,45.3,3067.6,165.1,3741.1,484.8,433.1,3041.4,3724.2,238.2,77.5,20.2
0.089812,430.7,46.7,3066.0,159.5,3742.2,485.8,432.1,3044.5,3725.5,237.9,77.6,20.7
0.091812,430.0,47.9,3063.4,156.5,3740.8,488.6,431.3,3047.1,3725.8,237.5,77.6,21.1
0.093812,429.6,49.0,3061.0,155.2,3736.1,501.9,430.7,3049,3725.1,237.2,77.7,21.4
0.095812,429.5,50.2,3059.8,154.6,3728.5,531.6,430.3,3050.4,3723.3,236.8,77.7,21.5
0.097812,429.7,51.5,3060.3,154.1,3719.0,570.5,430.1,3051.3,3720.5,236.5,77.7,21.5
0.099812,430.3,53.0,3061.9,154.1,3707.3,605.5,430,3051.6,3716.5,236.1,77.7,21.1
0.101812,431.1,54.4,3063.5,154.6,3694.6,622.9,430.1,3051.3,3711.3,235.8,77.7,20.5
0.103812,431.9,55.4,3063.4,154.1,3685.1,617.2,430.3,3050.5,3705.1,235.4,77.7,19.8
0.105812,432.7,56.5,3059.5,152.3,3679.4,592.0,430.7,3049,3697.7,235,77.7,19
0.107812,433.2,58.1,3051.7,151.7,3677.5,556.9,431.2,3046.9,3689.1,234.6,77.7,18.3
0.109812,433.5,60.8,3041.2,153.9,3679.0,518.9,431.8,3044.1,3679.5,234.3,77.7,17.6
0.111812,433.7,64.6,3028.6,156.6,3681.5,480.2,432.5,3040.5,3668.8,233.9,77.7,16.9
0.113812,433.9,69.0,3015.9,154.6,3679.1,447.2,433.3,3036.1,3657.2,233.6,77.7,16.2
0.115812,434.1,74.1,3005.6,147.2,3667.3,421.7,434.2,3030.9,3644.7,233.2,77.8,15.6
0.117812,434.3,79.7,3000.1,140.0,3647.5,403.6,435.1,3024.8,3631.4,232.8,77.9,15.2
0.119812,434.7,85.3,2997.4,135.8,3623.3,386.6,436.2,3017.8,3617.4,232.5,77.9,14.8
0.121812,435.3,90.8,2994.2,134.1,3598.6,368.1,437.3,3009.9,3602.9,232.2,78,14.5
0.123812,436.1,95.4,2988.2,133.8,3577.7,350.2,438.5,3001.1,3588,231.8,78.1,14.3
0.125812,437.4,99.0,2978.3,134.6,3558.8,332.3,439.7,2991.3,3573,231.5,78.2,14.2
0.127812,439.1,100.3,2966.8,136.4,3542.4,314.2,441.1,2980.7,3557.8,231.2,78.4,14.1
0.129812,441.1,98.7,2956.0,138.8,3528.4,293.1,442.6,2969.2,3542.7,231,78.5,14.1
0.131812,443.7,94.2,2948.4,142.1,3517.5,268.3,444.1,2957,3527.9,230.7,78.7,14.2
0.133812,446.3,88.1,2945.2,146.9,3510.1,244.8,445.7,2944.2,3513.4,230.5,78.9,14.3
0.135812,449.1,81.4,2944.2,154.6,3503.2,224.9,447.4,2930.8,3499.5,230.2,79.1,14.5
0.137812,451.7,74.9,2941.7,163.9,3494.8,211.9,449.2,2916.9,3486.2,230,79.4,14.6
0.139812,454.0,68.8,2934.1,171.5,3483.4,204.5,451.1,2902.7,3473.6,229.9,79.8,14.7
0.141812,456.1,62.8,2919.6,173.0,3469.3,202.5,453,2888.4,3461.8,229.7,80.2,14.9
0.143812,457.7,57.1,2902.2,168.0,3455.0,207.4,454.9,2874,3451,229.5,80.7,15.1
0.145812,458.9,51.2,2883.8,160.4,3441.2,219.6,456.9,2859.8,3441,229.4,81.3,15.2
0.147812,459.6,45.2,2865.8,154.1,3431.2,234.5,458.9,2846,3432,229.3,81.9,15.1
0.149812,460.0,39.3,2845.9,150.4,3426.3,249.1,460.8,2832.6,3423.9,229.2,82.7,14.9
0.151812,460.3,34.3,2821.9,151.8,3424.1,264.9,462.7,2819.9,3416.8,229.2,83.4,14.6
0.153812,461.0,30.9,2796.7,161.1,3417.1,283.0,464.5,2808,3410.5,229.1,84.2,14.2
0.155812,462.2,29.1,2773.2,178.9,3403.1,303.3,466.1,2797.1,3405.2,229.1,84.9,13.7
0.157812,463.8,29.2,2758.2,199.3,3392.4,325.4,467.7,2787.4,3400.7,229,85.6,13.3
0.159812,465.7,30.8,2751.5,220.0,3390.9,357.0,469,2778.9,3397,229,86.1,13
0.161812,467.8,34.2,2750.5,243.6,3397.1,406.9,470.1,2771.8,3394,229,86.4,12.6
0.163812,469.9,39.7,2752.8,273.4,3405.7,477.7,471,2766.1,3391.8,229,86.6,12.3
0.165812,472.4,49.1,2758.1,318.4,3409.6,580.5,471.7,2762,3390.2,229,86.5,11.9
0.167812,475.6,64.3,2767.4,383.2,3395.9,717.1,472.1,2759.6,3389.3,229,86.3,11.4
0.169812,480.3,90.2,2787.9,473.0,3345.0,911.6,472.2,2758.7,3389,229,85.8,10.8
