time,f1,b1,f2,b2,f3,b3,f1p,f2p,f3p,f0,intensity,harmonicity
0.025517,485.3,60.6,2464.3,265.8,3073.7,214.2,492.8,2496.2,3157.6,252.9,76,11.8
0.027517,485.1,57.7,2497.0,263.1,3083.2,226.6,492.8,2496.1,3157,252.9,76.3,12.4
0.029517,484.4,53.2,2511.9,261.1,3099.7,238.2,492.7,2495.9,3156.1,252.9,76.6,14.1
0.031517,484.5,49.2,2513.3,262.3,3118.6,247.4,492.5,2495.7,3154.9,252.9,76.8,16.3
0.033517,485.8,46.8,2502.0,256.8,3135.7,251.0,492.4,2495.5,3153.3,252.9,77.1,18.7
0.035517,488.4,44.9,2480.9,232.4,3149.3,254.9,492.2,2495.2,3151.5,252.9,77.4,20.7
0.037517,491.4,42.5,2466.8,191.8,3155.8,281.4,492,2494.8,3149.4,252.9,77.7,22.2
0.039517,493.0,40.1,2472.0,155.7,3152.7,351.8,491.8,2494.5,3147.1,252.9,78,22.8
0.041517,493.4,37.9,2485.3,133.8,3143.2,435.8,491.6,2494.1,3144.7,253,78.2,22.7
0.043517,493.4,35.8,2494.0,123.9,3141.1,478.3,491.5,2493.7,3142.3,253.1,78.4,22.4
0.045517,493.7,33.5,2496.6,123.6,3147.5,498.4,491.3,2493.3,3139.8,253.1,78.5,22.1
0.047517,494.2,31.1,2494.8,130.1,3148.3,534.6,491.2,2492.9,3137.3,253.2,78.6,22.2
0.049517,494.8,28.8,2493.5,133.8,3133.1,604.5,491.2,2492.5,3134.9,253.3,78.7,22.8
0.051517,495.5,27.0,2496.4,126.3,3107.6,689.1,491.2,2492.2,3132.7,253.5,78.8,23.6
0.053517,495.9,25.9,2500.8,111.7,3103.1,732.0,491.2,2491.9,3130.6,253.6,78.9,24.5
0.055517,496.0,25.4,2503.8,96.3,3142.3,687.0,491.4,2491.6,3128.9,253.8,79,25.4
0.057517,496.1,25.4,2505.1,86.0,3183.3,564.2,491.6,2491.4,3127.4,254,79,26.1
0.059517,496.4,25.3,2505.2,82.3,3193.1,450.0,491.9,2491.3,3126.4,254.3,79.1,26.7
0.061517,497.0,25.1,2504.5,84.7,3187.3,374.8,492.4,2491.2,3125.7,254.5,79.1,27.3
0.063517,497.7,24.7,2502.4,92.8,3181.6,329.0,492.9,2491.3,3125.5,254.8,79.1,27.8
0.065517,498.2,24.1,2497.9,108.4,3182.5,299.8,493.5,2491.4,3125.7,255.1,79.1,28.1
0.067517,498.5,23.3,2491.4,132.3,3190.7,289.4,494.3,2491.6,3126.4,255.5,79,28.1
0.069517,498.7,22.5,2484.2,161.5,3202.2,301.2,495.1,2491.9,3127.7,255.8,78.9,27.8
0.071517,499.1,21.9,2478.5,184.3,3212.5,333.2,496,2492.4,3129.4,256.2,78.8,27.2
0.073517,499.7,22.1,2476.9,185.7,3217.1,368.4,497.1,2492.9,3131.7,256.6,78.8,26.4
0.075517,500.6,23.1,2480.3,163.9,3209.9,381.9,498.2,2493.5,3134.4,257.1,78.7,25.7
0.077517,501.7,24.9,2486.6,132.1,3190.7,358.7,499.4,2494.2,3137.7,257.6,78.6,25.1
0.079517,503.0,26.9,2493.5,104.4,3168.1,321.8,500.6,2494.9,3141.3,258.1,78.6,24.8
0.081517,504.3,28.8,2500.0,87.0,3146.8,296.0,501.9,2495.8,3145.4,258.6,78.5,24.5
0.083517,505.4,30.5,2506.2,80.7,3128.7,289.3,503.3,2496.7,3149.9,259.2,78.4,24.4
0.085517,506.2,32.1,2513.2,83.7,3114.6,302.5,504.6,2497.7,3154.7,259.8,78.4,24.2
0.087517,506.7,33.8,2521.1,94.2,3106.9,336.6,506,2498.7,3159.8,260.4,78.3,24.1
0.089517,507.0,35.7,2529.3,108.2,3104.5,391.6,507.3,2499.8,3165,261.1,78.3,24.1
0.091517,507.2,38.1,2536.1,118.9,3106.7,462.4,508.6,2500.9,3170.4,261.8,78.4,24.2
0.093517,507.4,40.6,2539.1,122.4,3113.9,522.5,509.9,2501.9,3175.9,262.5,78.4,24.2
0.095517,508.0,43.0,2537.2,122.6,3124.0,530.1,511,2503,3181.5,263.3,78.5,24.3
0.097517,508.9,44.8,2531.3,125.6,3128.7,466.6,512.1,2504.1,3186.9,264,78.6,24.3
0.099517,509.8,46.0,2522.2,132.8,3126.9,383.2,513.1,2505,3192.2,264.9,78.8,24.3
0.101517,510.5,47.1,2508.8,141.5,3123.8,320.6,514,2506,3197.4,265.7,78.9,24.3
0.103517,510.8,48.4,2490.5,145.5,3124.9,284.8,514.7,2506.8,3202.3,266.6,79,24.3
0.105517,511.0,49.9,2470.3,136.9,3133.3,267.6,515.3,2507.5,3206.9,267.5,79.1,24.1
0.107517,511.4,51.5,2458.0,116.1,3149.0,264.0,515.7,2508.1,3211.1,268.4,79.1,23.8
0.109517,511.6,53.8,2455.4,95.0,3170.3,262.1,515.9,2508.5,3214.9,269.4,79.1,23.2
0.111517,511.3,57.6,2458.0,81.9,3194.8,249.2,516,2508.8,3218.2,270.4,79,22.4
0.113517,509.8,64.3,2461.7,77.4,3215.2,226.8,515.8,2508.9,3221.1,271.4,78.9,21.5
0.115517,506.8,75.2,2465.1,77.5,3229.6,202.6,515.5,2508.8,3223.4,272.4,78.7,20.6
0.117517,502.6,89.3,2466.7,77.8,3239.4,184.4,515,2508.5,3225.2,273.4,78.4,19.8
0.119517,498.3,103.5,2466.8,75.5,3247.0,175.8,514.3,2507.9,3226.4,274.5,78.1,18.9
0.121517,496.0,114.0,2468.8,71.3,3251.3,181.5,513.4,2507.1,3227.1,275.6,77.8,18
0.123517,496.9,116.7,2475.9,68.3,3251.0,207.4,512.3,2506.1,3227.2,276.7,77.6,17.2
0.125517,500.6,110.7,2488.5,68.4,3247.9,264.4,511.1,2504.7,3226.8,277.7,77.4,16.5
0.127517,506.0,99.6,2503.8,72.4,3253.5,355.6,509.7,2503.1,3225.8,278.9,77.3,16.2
0.129517,511.8,89.2,2518.8,79.3,3279.9,462.9,508.2,2501.2,3224.4,280,77.4,16.3
0.131517,517.2,82.5,2531.4,89.7,3310.7,542.4,506.6,2498.9,3222.4,281.1,77.4,16.9
0.133517,521.1,80.6,2540.6,103.4,3311.4,566.0,504.9,2496.4,3220.1,282.2,77.6,17.6
0.135517,523.0,83.6,2546.1,115.4,3282.0,539.9,503.1,2493.5,3217.4,283.3,77.7,18.4
0.137517,521.5,92.3,2546.0,120.5,3250.7,489.1,501.3,2490.3,3214.4,284.5,77.9,18.9
0.139517,516.1,106.5,2540.8,124.0,3227.4,436.1,499.4,2486.7,3211.1,285.6,78.1,19.2
0.141517,508.4,122.7,2531.5,131.1,3206.9,383.6,497.6,2482.8,3207.6,286.7,78.2,19.5
0.143517,502.5,135.8,2519.4,140.1,3187.6,333.6,495.8,2478.6,3204,287.8,78.4,19.7
0.145517,501.1,143.7,2505.6,149.6,3172.2,289.1,494.1,2474,3200.3,289,78.5,19.8
0.147517,504.0,144.7,2494.5,160.2,3168.0,259.9,492.5,2469.1,3196.5,290.1,78.6,19.8
0.149517,508.0,141.0,2487.2,173.4,3177.2,239.2,491,2463.8,3192.8,291.2,78.6,19.7
0.151517,511.0,136.8,2479.4,187.1,3192.2,211.4,489.6,2458.3,3189.2,292.3,78.5,19.5
0.153517,511.0,135.7,2465.7,197.3,3202.8,179.9,488.5,2452.3,3185.7,293.4,78.3,19.1
0.155517,506.2,140.1,2444.1,202.3,3208.7,156.3,487.5,2446,3182.4,294.5,78.1,18.8
0.157517,495.2,150.8,2420.6,202.7,3212.6,147.6,486.8,2439.4,3179.4,295.6,77.7,18.4
0.159517,477.5,163.7,2402.2,204.3,3216.0,153.2,486.4,2432.5,3176.6,296.7,77.4,17.9
0.161517,458.8,170.4,2392.7,207.9,3217.9,171.5,486.2,2425.3,3174.2,297.8,77.1,17.2
0.163517,451.0,169.6,2392.3,206.9,3217.2,197.4,486.3,2417.7,3172.1,298.9,76.9,16.5
0.165517,456.7,165.5,2397.1,200.8,3214.5,229.0,486.7,2409.8,3170.3,299.9,76.9,16
0.167517,469.3,160.2,2400.4,199.8,3210.2,263.7,487.4,2401.6,3168.9,301,76.9,15.9
0.169517,481.4,155.3,2397.3,213.3,3201.7,297.2,488.5,2393.1,3167.8,302.1,77,16.4
0.171517,489.9,151.8,2385.3,248.2,3182.3,316.5,489.9,2384.4,3167.1,303.1,77.1,17.2
0.173517,493.9,150.5,2362.6,302.6,3149.3,298.3,491.6,2375.3,3166.8,304.2,77.1,18.2
0.175517,494.9,152.7,2327.3,353.1,3112.5,234.3,493.7,2366,3166.8,305.2,77,19.1
0.177517,494.9,160.4,2297.8,351.8,3090.9,166.5,496.2,2356.4,3167,306.2,76.9,19.6
0.179517,494.6,172.8,2292.0,312.4,3083.8,125.9,498.9,2346.6,3167.6,307.2,76.8,19.5
0.181517,493.8,184.8,2304.9,273.7,3085.1,107.7,502,2336.6,3168.3,308.2,76.6,18.9
0.183517,495.3,191.0,2321.9,242.8,3090.3,97.8,505.5,2326.3,3169.3,309.2,76.5,18.2
0.185517,502.1,191.3,2334.0,211.7,3097.0,86.7,509.2,2315.8,3170.3,310.2,76.6,17.7
0.187517,511.8,187.6,2335.6,184.5,3104.6,74.6,513.2,2305.1,3171.5,311.2,76.7,17.6
0.189517,521.2,182.1,2324.9,163.7,3113.2,63.8,517.5,2294.3,3172.7,312.1,76.8,18.1
0.191517,527.8,177.7,2301.8,147.6,3123.2,55.6,522,2283.3,3173.9,313.1,77,19
0.193517,531.7,176.3,2272.6,132.8,3133.9,50.3,526.8,2272.1,3175,314,77.1,20
0.195517,534.4,177.5,2244.5,118.6,3144.4,47.0,531.7,2260.8,3175.9,314.9,77.1,21
0.197517,536.3,179.9,2224.2,109.8,3152.7,45.6,536.9,2249.4,3176.7,315.8,77.1,21.6
0.199517,538.1,181.6,2210.4,106.9,3159.1,46.0,542.2,2238,3177.3,316.7,77,21.8
0.201517,541.4,180.8,2201.1,106.7,3165.3,48.7,547.6,2226.5,3177.7,317.6,76.9,21.6
0.203517,546.3,177.5,2195.8,106.2,3172.6,55.3,553.1,2214.9,3177.7,318.5,76.8,21.4
0.205517,552.8,172.4,2193.9,104.9,3183.2,69.3,558.7,2203.4,3177.4,319.3,76.7,21.1
0.207517,560.4,166.6,2195.6,104.3,3197.4,91.2,564.3,2191.8,3176.8,320.1,76.6,21
0.209517,569.7,159.1,2199.6,107.0,3212.0,112.5,569.9,2180.3,3175.7,321,76.5,20.9
0.211517,580.5,148.5,2203.5,115.6,3220.9,122.0,575.6,2168.9,3174.3,321.8,76.4,20.9
0.213517,591.0,136.3,2202.8,130.5,3225.1,125.7,581.1,2157.7,3172.6,322.5,76.4,20.8
0.215517,600.6,124.5,2192.4,152.5,3229.1,135.7,586.7,2146.5,3170.4,323.3,76.3,20.9
0.217517,607.5,116.3,2169.1,179.1,3233.8,158.0,592.1,2135.5,3167.8,324.1,76.3,21
0.219517,611.3,111.4,2139.4,203.1,3235.8,190.1,597.4,2124.8,3165,324.8,76.3,21.3
0.221517,613.3,107.4,2117.3,214.6,3229.1,218.1,602.6,2114.3,3161.7,325.5,76.3,21.8
0.223517,615.5,102.8,2107.9,206.8,3215.4,228.1,607.6,2104,3158.2,326.2,76.4,22.3
0.225517,618.9,97.8,2105.4,185.1,3203.3,227.4,612.5,2094.1,3154.5,326.9,76.4,22.7
0.227517,622.2,93.4,2104.2,162.7,3201.0,228.9,617.1,2084.5,3150.5,327.5,76.5,23
0.229517,624.5,90.1,2099.5,145.3,3207.9,238.8,621.6,2075.3,3146.3,328.2,76.6,23.2
0.231517,626.2,88.0,2087.6,130.9,3216.7,256.6,625.8,2066.5,3142.1,328.8,76.7,23.2
0.233517,627.9,87.1,2068.9,115.4,3215.8,274.5,629.8,2058.1,3137.8,329.4,76.8,23.1
0.235517,630.3,86.3,2045.8,94.9,3194.5,278.8,633.5,2050.3,3133.5,330,77,23.1
0.237517,634.0,83.8,2025.2,72.6,3154.8,254.4,636.9,2042.9,3129.2,330.5,77.1,23.2
0.239517,638.2,78.4,2010.4,52.5,3115.2,208.4,640.1,2036,3125.1,331.1,77.2,23.5
0.241517,642.0,71.2,2001.3,37.5,3089.7,164.1,643,2029.8,3121.2,331.6,77.3,23.9
0.243517,644.8,64.4,1996.6,27.5,3076.7,133.9,645.7,2024.1,3117.5,332.1,77.4,24.4
0.245517,647.4,57.7,1994.6,20.5,3067.3,114.3,648,2019,3114.1,332.5,77.4,24.8
0.247517,649.4,51.6,1994.7,15.9,3057.9,102.3,650,2014.6,3111.1,333,77.3,25
0.249517,650.8,47.0,1996.6,13.1,3049.6,93.1,651.7,2010.8,3108.4,333.4,77.2,25
0.251517,651.2,45.0,1999.7,11.9,3046.0,84.1,653.1,2007.6,3106.2,333.8,77,24.8
0.253517,650.7,45.5,2003.5,11.9,3047.6,76.3,654.3,2005.2,3104.4,334.2,76.8,24.6
0.255517,649.4,47.9,2007.8,13.0,3052.8,69.5,655,2003.5,3103.1,334.5,76.6,24.3
0.257517,647.6,51.0,2012.1,15.0,3060.3,62.8,655.5,2002.4,3102.3,334.8,76.3,24.1
0.259517,645.2,54.4,2015.7,18.0,3067.7,56.3,655.7,2002,3102.1,335.1,76.1,23.8
