time,f1,b1,f2,b2,f3,b3,f1p,f2p,f3p,f0,intensity,harmonicity
0.025478,262.0,148.3,2530.1,131.9,3339.8,210.2,266.7,2560.8,3313.6,214.3,73,16.3
0.027478,264.4,120.8,2533.1,118.1,3333.7,220.3,268.7,2561.7,3314.8,214.8,73.8,16.7
0.029478,266.7,102.3,2541.3,114.9,3328.6,255.6,272,2563.2,3316.8,215.2,74.5,17.2
0.031478,269.6,89.2,2555.6,119.8,3321.2,305.6,276.6,2565.3,3319.6,215.8,75.1,17.6
0.033478,273.6,79.6,2573.0,128.0,3315.0,359.9,282.4,2567.9,3323,216.3,75.7,17.8
0.035478,278.8,72.1,2588.2,134.6,3311.5,415.4,289.2,2571,3327.1,216.8,76.1,17.8
0.037478,285.5,65.1,2598.8,140.8,3304.2,458.6,297,2574.6,3331.7,217.4,76.4,17.7
0.039478,293.1,59.2,2603.5,151.1,3291.5,459.0,305.7,2578.5,3336.8,218,76.6,17.4
0.041478,302.5,55.1,2603.2,169.0,3281.9,421.1,315.1,2582.7,3342.2,218.7,76.6,17
0.043478,313.4,53.9,2598.3,191.3,3283.8,375.9,325,2587.2,3347.9,219.3,76.5,16.5
0.045478,325.8,55.1,2589.9,209.0,3297.2,344.0,335.4,2591.9,3353.8,220,76.2,15.8
0.047478,341.1,57.1,2579.7,216.9,3319.8,325.9,346,2596.6,3359.7,220.6,75.8,15
0.049478,359.0,58.0,2572.1,215.7,3345.0,316.7,356.8,2601.3,3365.6,221.3,75.2,14
0.051478,381.1,57.2,2573.2,207.0,3373.2,310.4,367.5,2605.9,3371.3,222,74.5,12.9
0.053478,405.4,54.4,2586.9,188.2,3402.9,304.8,378,2610.3,3376.6,222.6,73.7,11.9
0.055478,428.3,49.7,2605.3,160.4,3427.0,296.0,388.1,2614.5,3381.6,223.3,72.8,10.9
0.057478,447.2,44.1,2620.4,132.4,3438.5,286.2,397.8,2618.3,3386.1,224,72.1,9.5
0.059478,457.6,40.1,2628.8,116.6,3435.6,284.2,406.9,2621.7,3390,224.6,71.7,8.1
0.061478,459.4,38.5,2632.8,115.7,3424.7,294.4,415.4,2624.5,3393.3,225.2,71.7,7
0.063478,453.9,39.1,2633.3,129.9,3413.5,316.0,423,2626.8,3395.8,225.8,72,6.4
0.065478,444.6,41.0,2632.6,155.4,3407.6,346.3,429.9,2628.4,3397.5,226.4,72.6,6.7
0.067478,434.0,43.7,2634.9,186.8,3409.7,388.5,435.8,2629.2,3398.3,227,73.2,8
0.069478,424.8,46.6,2643.1,212.2,3419.6,446.9,440.8,2629.3,3398.3,227.5,73.9,9.9
0.071478,417.3,49.5,2657.3,225.2,3440.1,537.0,445,2628.5,3397.4,228.1,74.4,11.9
0.073478,412.5,52.3,2671.5,221.9,3475.8,660.8,448.2,2626.9,3395.6,228.5,74.8,13.6
0.075478,410.4,54.2,2678.8,210.2,3522.4,795.8,450.6,2624.3,3392.9,229,75.1,14.6
0.077478,410.9,54.3,2677.5,202.9,3563.2,920.0,452.1,2620.7,3389.3,229.4,75.2,15.3
0.079478,414.0,51.9,2670.5,209.5,3570.0,1017.9,453,2616.2,3384.9,229.8,75.3,15.6
0.081478,419.7,47.1,2661.8,234.9,3525.2,1123.9,453.2,2610.7,3379.7,230.1,75.2,15.8
0.083478,427.3,40.8,2654.5,284.7,3411.4,1219.4,452.8,2604.2,3373.9,230.4,75.1,16
0.085478,435.8,34.4,2646.0,367.3,3261.2,1181.2,452,2596.8,3367.4,230.7,74.9,16
0.087478,444.3,28.2,2616.8,493.9,3159.6,965.3,450.9,2588.4,3360.3,230.9,74.8,15.8
0.089478,451.5,23.0,2553.9,581.0,3153.5,745.9,449.6,2579,3352.8,231.1,74.8,15.4
0.091478,457.4,19.2,2501.2,586.1,3177.0,630.0,448.3,2568.6,3344.9,231.3,74.9,15.1
0.093478,461.3,16.6,2471.8,565.3,3191.5,580.8,447,2557.4,3336.7,231.4,75.2,15.2
0.095478,463.3,15.0,2449.5,551.5,3200.3,549.3,445.9,2545.4,3328.4,231.4,75.6,15.8
0.097478,464.1,14.0,2427.0,543.5,3213.8,521.3,445.1,2532.5,3320,231.4,76.1,17.3
0.099478,464.2,13.1,2407.9,530.3,3226.1,501.2,444.7,2518.8,3311.7,231.4,76.7,19
0.101478,464.2,12.0,2398.4,502.3,3232.5,483.9,444.9,2504.4,3303.5,231.3,77.3,20.8
0.103478,464.5,11.1,2409.0,458.9,3242.0,466.4,445.7,2489.3,3295.5,231.2,77.9,22.1
0.105478,465.4,10.4,2433.1,404.8,3260.2,448.6,447.2,2473.6,3287.9,231,78.5,22.6
0.107478,466.6,9.9,2450.8,350.7,3276.2,440.9,449.5,2457.4,3280.7,230.8,79,22.6
0.109478,467.9,9.3,2451.8,312.6,3281.3,463.4,452.5,2440.6,3274,230.5,79.4,22.1
0.111478,469.0,8.9,2443.0,283.4,3279.7,526.5,456.4,2423.4,3267.9,230.2,79.7,21.4
0.113478,469.7,8.8,2435.0,255.3,3282.0,631.3,461.1,2405.8,3262.4,229.8,79.9,20.5
0.115478,469.9,9.3,2432.4,225.8,3301.9,756.8,466.7,2387.8,3257.7,229.4,79.9,19.6
0.117478,469.8,10.7,2430.0,198.7,3342.1,862.9,473,2369.6,3253.6,228.9,79.7,18.4
0.119478,469.6,12.9,2423.0,189.2,3382.5,911.5,480.1,2351.1,3250.3,228.5,79.4,17
0.121478,470.1,16.5,2408.6,206.7,3404.5,889.0,487.9,2332.5,3247.9,228,78.9,15.6
0.123478,472.9,22.7,2384.2,250.6,3390.9,791.4,496.3,2313.7,3246.2,227.4,78.3,14.5
0.125478,479.8,32.5,2350.1,307.6,3363.6,698.4,505.2,2294.9,3245.4,226.8,77.7,13.8
0.127478,492.5,45.9,2308.8,364.8,3338.1,667.4,514.5,2276.1,3245.3,226.3,77,13.3
0.129478,508.8,58.4,2272.5,402.7,3314.2,714.4,524,2257.2,3246.1,225.6,76.4,13.1
0.131478,526.0,66.1,2244.9,421.6,3278.0,822.0,533.8,2238.4,3247.6,225,76,13.1
0.133478,540.2,67.2,2221.4,421.9,3230.3,914.0,543.6,2219.8,3249.9,224.4,75.8,13.3
0.135478,551.5,65.1,2199.6,394.2,3205.6,937.9,553.2,2201.2,3253,223.7,75.7,13.8
0.137478,562.3,62.9,2183.8,342.3,3218.4,931.1,562.7,2182.9,3256.7,223.1,75.8,14.8
0.139478,572.8,61.9,2174.2,291.9,3250.4,909.8,571.8,2164.8,3261.1,222.4,75.9,15.9
0.141478,583.7,61.4,2164.4,255.4,3273.0,856.0,580.5,2146.9,3266.1,221.8,76,17.1
0.143478,594.2,60.8,2150.6,237.8,3263.8,769.4,588.6,2129.3,3271.7,221.1,76,18.1
0.145478,603.3,60.1,2131.4,232.6,3237.9,679.0,595.9,2112,3277.9,220.4,76.1,18.6
0.147478,611.1,59.3,2105.6,231.4,3225.4,610.7,602.6,2095,3284.5,219.8,76.2,18.7
0.149478,616.5,58.1,2075.6,232.4,3242.1,591.4,608.3,2078.5,3291.7,219.1,76.2,18.6
0.151478,620.3,56.1,2041.6,232.3,3276.7,613.6,613.1,2062.3,3299.2,218.5,76.2,18.4
0.153478,623.2,54.2,2010.8,224.3,3304.5,651.8,617,2046.5,3307.1,217.9,76.3,18.2
0.155478,625.8,53.0,1988.2,209.0,3313.0,686.6,619.8,2031.2,3315.5,217.2,76.2,18.1
0.157478,628.5,52.8,1970.2,189.5,3310.3,693.6,621.6,2016.3,3324.1,216.6,76.2,18
0.159478,631.0,53.6,1954.1,169.7,3310.3,639.4,622.4,2002,3333.1,216,76.1,18
0.161478,633.2,55.5,1937.3,151.7,3311.2,528.6,622.1,1988.1,3342.3,215.4,76,17.8
0.163478,634.1,58.8,1922.3,140.8,3305.3,420.3,620.9,1974.7,3351.8,214.8,75.8,17.6
0.165478,632.9,64.3,1911.9,138.9,3295.9,357.2,618.7,1961.9,3361.6,214.3,75.6,17.2
0.167478,629.5,74.0,1906.4,142.2,3287.1,327.0,615.6,1949.7,3371.6,213.7,75.4,16.6
0.169478,624.2,89.8,1904.9,145.5,3281.7,311.8,611.7,1938,3381.9,213.1,75.3,15.9
0.171478,616.9,111.8,1904.3,146.4,3281.6,307.1,607.1,1926.9,3392.3,212.6,75.2,15.2
0.173478,605.9,141.7,1902.5,145.8,3290.1,322.0,601.8,1916.4,3403,212,75.1,14.7
0.175478,590.9,178.6,1901.0,146.0,3311.5,369.1,596,1906.5,3413.9,211.5,75,14.5
0.177478,572.0,228.2,1902.6,147.9,3353.9,458.4,589.6,1897.2,3425,211,75,14.4
0.179478,555.4,293.4,1908.9,150.5,3418.2,568.2,582.9,1888.5,3436.3,210.5,75,14.5
0.181478,549.8,382.9,1918.1,154.6,3504.9,672.6,576,1880.4,3447.7,210,75.1,14.8
0.183478,561.8,469.8,1926.7,171.4,3609.6,730.0,568.8,1872.9,3459.2,209.5,75.2,15.4
0.185478,560.3,514.5,1932.5,223.1,3692.5,717.7,561.7,1865.9,3470.9,209,75.4,16.3
0.187478,517.4,520.5,1930.3,351.6,3722.8,718.1,554.5,1859.6,3482.7,208.6,75.5,17.7
0.189478,481.1,499.9,1907.9,559.5,3707.2,769.4,547.4,1853.8,3494.6,208.1,75.8,19.4
0.191478,468.1,511.7,1868.3,791.4,3671.0,833.1,540.5,1848.5,3506.5,207.7,76,21.2
0.193478,470.2,558.7,1853.7,921.7,3645.9,884.0,533.9,1843.8,3518.4,207.3,76.3,22.6
0.195478,487.5,617.2,1868.2,926.4,3631.2,933.2,527.5,1839.6,3530.3,206.9,76.6,23.5
0.197478,517.8,655.6,1871.3,912.5,3600.3,979.6,521.6,1835.8,3542.1,206.5,76.9,24.1
0.199478,545.6,657.9,1852.1,937.0,3554.1,947.1,516,1832.6,3553.7,206.1,77.2,24.5
0.201478,572.5,630.8,1834.4,937.5,3525.5,819.4,510.8,1829.7,3565.2,205.7,77.5,24.6
0.203478,592.6,579.4,1838.1,871.6,3515.7,678.6,506.1,1827.2,3576.4,205.4,77.8,24.6
0.205478,596.6,539.0,1846.5,781.0,3503.1,581.6,501.8,1825.1,3587.3,205,78,24.5
0.207478,586.3,528.5,1835.9,703.6,3480.5,532.1,498,1823.4,3597.8,204.7,78.2,24
0.209478,565.2,544.4,1803.9,641.1,3456.1,534.0,494.6,1821.9,3607.9,204.4,78.4,23.2
0.211478,533.6,569.5,1764.6,577.2,3435.2,586.0,491.6,1820.7,3617.5,204.1,78.6,22.5
0.213478,496.1,587.4,1736.9,523.8,3424.2,673.7,489,1819.7,3626.5,203.8,78.7,22
0.215478,468.1,588.9,1729.3,487.5,3435.7,736.7,486.8,1818.9,3634.8,203.5,78.8,21.8
0.217478,463.3,578.9,1741.8,461.9,3483.2,744.4,485,1818.3,3642.5,203.3,79,22
0.219478,471.5,566.2,1767.0,452.9,3554.0,731.4,483.4,1817.9,3649.4,203,79.1,22.4
0.221478,476.6,555.3,1796.6,465.5,3634.9,726.9,482.2,1817.5,3655.5,202.8,79.2,22.8
0.223478,477.4,540.8,1823.0,491.8,3710.3,734.8,481.2,1817.3,3660.8,202.6,79.3,23
0.225478,477.8,510.2,1841.1,503.0,3770.2,745.4,480.4,1817.1,3665.2,202.4,79.4,22.7
0.227478,474.2,459.3,1849.3,469.4,3811.0,753.7,479.8,1817,3668.6,202.2,79.4,22
0.229478,461.6,406.8,1851.5,405.5,3822.3,780.5,479.4,1816.9,3671.1,202,79.4,21.1
0.231478,437.0,367.7,1854.7,357.2,3799.2,861.3,479.2,1816.9,3672.5,201.8,79.4,20.2
0.233478,399.1,348.1,1860.8,357.9,3754.1,968.5,479.1,1816.9,3673,201.7,79.4,19.7
