time,f1,b1,f2,b2,f3,b3,f1p,f2p,f3p,f0,intensity,harmonicity
0.025531,218.4,28.0,1689.3,867.8,2517.3,283.3,309.2,2228.5,2778.9,209.4,84.5,32.1
0.027531,219.5,29.2,2047.1,491.6,2474.5,752.5,309.7,2230.1,2780.3,209.8,84.5,31.6
0.029531,218.2,26.0,2055.7,180.3,2664.9,853.4,310.6,2232.7,2782.6,210.1,84.5,30.8
0.031531,217.4,21.2,2047.5,136.8,2678.7,651.0,311.9,2236.4,2785.8,210.5,84.5,29.8
0.033531,219.5,21.7,2037.8,126.0,2658.1,466.8,313.5,2241.1,2790,210.9,84.4,28.6
0.035531,224.9,28.1,2036.9,115.5,2667.6,322.7,315.4,2246.8,2795,211.3,84.2,27.3
0.037531,234.2,40.3,2045.3,114.2,2688.8,223.5,317.7,2253.4,2800.9,211.7,84,25.6
0.039531,247.8,58.2,2061.9,122.4,2707.9,154.7,320.3,2261,2807.7,212.2,83.6,23.5
0.041531,266.0,82.3,2093.0,144.1,2723.1,111.0,323.2,2269.5,2815.2,212.7,83.2,21.2
0.043531,287.3,107.2,2154.1,190.6,2736.2,98.0,326.4,2278.9,2823.6,213.2,82.7,18.9
0.045531,315.3,130.7,2278.3,248.3,2757.1,119.4,329.9,2289.1,2832.7,213.7,82.2,16.9
0.047531,356.2,136.3,2427.1,215.3,2808.2,173.2,333.6,2300.1,2842.5,214.2,81.6,15.5
0.049531,389.3,111.9,2499.5,146.8,2883.5,192.2,337.6,2311.8,2853,214.8,80.9,14.5
0.051531,410.1,87.2,2530.7,119.7,2943.6,176.7,341.8,2324.2,2864.1,215.3,80.3,13.7
0.053531,424.2,67.6,2552.3,109.9,2989.7,157.5,346.3,2337.1,2875.8,215.9,79.7,13.1
0.055531,434.2,52.0,2569.5,102.1,3032.4,136.2,350.9,2350.7,2888.1,216.5,79.1,12.6
0.057531,440.7,41.0,2579.1,93.6,3068.6,113.9,355.7,2364.7,2900.8,217,78.4,12
0.059531,445.0,33.8,2582.2,85.9,3093.3,97.2,360.7,2379.2,2914,217.6,77.9,11.3
0.061531,447.8,29.3,2583.8,81.8,3107.0,91.0,365.8,2394.1,2927.6,218.2,77.5,10.6
0.063531,449.4,26.6,2586.8,82.7,3111.6,95.7,371.1,2409.2,2941.5,218.7,77.1,10.1
0.065531,450.2,25.1,2590.9,86.3,3110.9,109.4,376.4,2424.6,2955.8,219.3,77,9.8
0.067531,450.3,24.9,2593.1,91.5,3107.0,130.4,381.7,2440.2,2970.2,219.8,76.9,9.6
0.069531,449.7,26.0,2590.7,99.8,3100.9,156.8,387.2,2455.9,2984.8,220.4,77,9.7
0.071531,448.7,27.9,2585.6,112.4,3094.4,185.6,392.6,2471.6,2999.6,220.9,77.2,9.9
0.073531,447.9,29.5,2583.5,124.1,3091.2,210.3,398.1,2487.3,3014.4,221.4,77.5,10.3
0.075531,447.3,30.2,2587.5,130.2,3093.2,231.7,403.5,2502.9,3029.3,222,77.7,10.9
0.077531,447.0,30.1,2596.6,130.8,3101.6,255.1,408.9,2518.3,3044.1,222.5,78,11.6
0.079531,447.0,30.0,2607.0,129.8,3113.9,286.6,414.3,2533.5,3058.8,222.9,78.2,12.6
0.081531,447.3,29.7,2616.3,129.3,3125.4,326.3,419.6,2548.5,3073.4,223.4,78.4,13.8
0.083531,447.7,29.0,2623.0,129.4,3131.4,362.5,424.7,2563.1,3087.8,223.9,78.5,15
0.085531,448.2,27.8,2627.7,129.0,3135.1,389.2,429.8,2577.3,3101.9,224.3,78.6,16.1
0.087531,449.0,26.4,2631.5,126.9,3144.6,405.0,434.7,2591.1,3115.8,224.8,78.7,16.9
0.089531,449.9,24.8,2635.7,121.7,3165.2,408.7,439.5,2604.3,3129.3,225.2,78.7,17.5
0.091531,451.1,22.8,2641.0,114.7,3189.8,395.1,444.1,2617.1,3142.4,225.6,78.6,18
0.093531,452.4,20.7,2646.8,110.0,3202.4,375.9,448.5,2629.2,3155.2,226,78.5,18.4
0.095531,453.5,18.5,2652.6,109.8,3202.7,368.2,452.8,2640.7,3167.4,226.4,78.4,18.8
0.097531,454.5,16.5,2657.2,114.5,3198.4,372.4,456.8,2651.6,3179.2,226.8,78.3,19.2
0.099531,455.5,14.5,2660.0,123.0,3197.6,378.6,460.6,2661.8,3190.5,227.2,78.2,19.5
0.101531,456.5,12.6,2662.7,133.8,3204.9,381.6,464.3,2671.2,3201.2,227.5,78.2,19.7
0.103531,457.5,11.3,2666.9,143.3,3217.5,384.0,467.6,2680,3211.4,227.9,78.2,20
0.105531,458.4,10.7,2673.0,148.4,3233.0,385.1,470.8,2687.9,3220.9,228.3,78.2,20.4
0.107531,459.0,10.7,2679.3,149.2,3249.0,379.7,473.7,2695.1,3229.8,228.6,78.3,20.9
0.109531,459.5,11.1,2684.6,149.2,3261.6,364.1,476.3,2701.5,3238.1,229,78.4,21.5
0.111531,459.9,11.8,2689.9,149.1,3267.6,339.2,478.8,2707.1,3245.7,229.3,78.6,22.2
0.113531,460.2,12.5,2696.5,146.4,3267.4,318.9,480.9,2711.9,3252.7,229.6,78.7,23
0.115531,460.4,13.2,2705.4,139.4,3267.3,315.0,482.9,2715.9,3259,230,78.8,23.8
0.117531,460.6,13.8,2715.3,128.9,3273.8,328.6,484.6,2719.2,3264.6,230.3,78.9,24.6
0.119531,460.9,14.3,2723.8,117.4,3286.0,346.1,486,2721.6,3269.5,230.7,79,25.6
0.121531,461.3,14.7,2729.4,109.2,3293.7,357.8,487.2,2723.3,3273.8,231,79.1,26.5
0.123531,462.0,14.9,2732.4,108.2,3287.4,368.8,488.2,2724.3,3277.3,231.3,79.2,27.4
0.125531,462.8,14.9,2733.7,114.6,3266.1,388.5,489,2724.6,3280.3,231.7,79.2,28.1
0.127531,463.7,14.8,2733.0,127.0,3231.8,409.9,489.5,2724.2,3282.5,232,79.3,28.4
0.129531,464.7,14.5,2727.9,144.0,3192.9,413.0,489.9,2723.1,3284.1,232.3,79.3,28.4
0.131531,465.7,14.3,2714.4,164.7,3160.9,388.6,490,2721.4,3285.1,232.7,79.3,28.1
0.133531,466.6,14.1,2689.4,182.5,3145.4,346.3,490,2719.1,3285.5,233,79.3,27.8
0.135531,467.2,14.1,2654.4,190.2,3144.3,300.1,489.8,2716.2,3285.3,233.3,79.4,27.5
0.137531,467.8,14.1,2617.8,186.2,3151.2,263.6,489.5,2712.9,3284.5,233.7,79.4,27.5
0.139531,468.3,14.3,2588.2,176.5,3157.4,242.2,489,2709.1,3283.2,234,79.4,27.7
0.141531,468.8,14.6,2568.4,167.7,3157.0,234.0,488.4,2704.8,3281.3,234.4,79.4,27.9
0.143531,469.3,14.9,2558.1,164.2,3149.7,235.3,487.6,2700.2,3279,234.7,79.4,28.1
0.145531,469.6,15.5,2553.0,165.0,3141.7,244.8,486.8,2695.2,3276.2,235.1,79.4,28.3
0.147531,469.8,16.2,2553.4,164.6,3143.0,267.0,485.9,2690,3273,235.4,79.5,28.3
0.149531,469.8,17.1,2560.0,156.4,3160.2,300.0,484.9,2684.5,3269.4,235.8,79.5,28.2
0.151531,470.0,17.8,2569.8,140.5,3189.9,327.6,483.8,2678.8,3265.4,236.1,79.5,28
0.153531,470.4,18.4,2578.7,124.7,3218.6,335.4,482.7,2673,3261.1,236.5,79.6,27.9
0.155531,471.0,18.8,2586.1,111.8,3240.7,331.0,481.6,2667.1,3256.5,236.8,79.6,27.8
0.157531,471.9,19.2,2592.1,101.3,3253.5,323.4,480.5,2661.1,3251.6,237.2,79.7,27.8
0.159531,473.0,19.6,2597.4,92.3,3254.7,315.9,479.3,2655.2,3246.5,237.5,79.8,27.9
0.161531,474.4,20.1,2602.9,84.2,3246.3,308.2,478.2,2649.3,3241.2,237.9,79.9,28.1
0.163531,475.6,20.6,2608.8,77.8,3240.4,303.3,477.2,2643.4,3235.8,238.2,80,28.3
0.165531,476.7,21.2,2615.4,72.6,3245.5,305.5,476.1,2637.8,3230.2,238.6,80.1,28.5
0.167531,477.7,21.7,2622.2,67.7,3260.9,314.8,475.1,2632.3,3224.5,238.9,80.2,28.4
0.169531,478.7,22.0,2628.2,62.4,3281.4,330.9,474.2,2627,3218.7,239.2,80.3,28.1
0.171531,480.1,22.1,2633.9,56.1,3305.1,356.9,473.4,2621.9,3212.9,239.6,80.4,27.7
0.173531,481.4,21.8,2639.2,50.1,3327.7,387.5,472.6,2617.1,3207.1,239.9,80.5,27.4
0.175531,482.7,21.5,2644.1,45.6,3337.0,411.0,471.9,2612.7,3201.3,240.2,80.6,27.2
0.177531,483.8,21.0,2647.4,43.6,3316.9,411.8,471.4,2608.5,3195.6,240.5,80.7,27.5
0.179531,484.8,20.3,2648.5,43.0,3278.8,384.8,470.9,2604.8,3189.9,240.8,80.7,28.1
0.181531,485.8,19.5,2648.3,42.4,3245.3,346.3,470.6,2601.4,3184.4,241.1,80.7,28.9
0.183531,486.9,18.6,2648.1,41.4,3223.9,319.8,470.3,2598.4,3178.9,241.4,80.8,29.8
0.185531,487.8,17.7,2648.7,40.2,3207.0,311.0,470.2,2595.9,3173.6,241.7,80.8,30.4
0.187531,488.6,17.0,2650.1,39.0,3189.0,322.0,470.2,2593.7,3168.5,241.9,80.8,30.8
0.189531,489.1,16.9,2651.6,37.9,3167.9,351.5,470.4,2592,3163.5,242.2,80.9,30.8
0.191531,489.4,17.3,2652.8,37.1,3145.0,392.1,470.7,2590.7,3158.7,242.4,80.9,30.7
0.193531,489.6,18.1,2653.2,37.1,3127.4,424.3,471.1,2589.9,3154.1,242.7,81,30.5
0.195531,489.8,19.0,2652.8,38.5,3116.7,440.0,471.6,2589.5,3149.8,242.9,81,30.3
0.197531,490.1,19.7,2652.6,41.6,3111.5,443.0,472.2,2589.6,3145.6,243.1,81.1,30.1
0.199531,490.6,20.1,2653.2,46.1,3111.2,441.9,473,2590.1,3141.7,243.3,81.2,29.7
0.201531,491.0,20.1,2655.4,50.8,3117.8,442.0,473.9,2591,3138,243.5,81.2,29.2
0.203531,491.4,19.8,2657.9,53.8,3130.0,440.3,474.9,2592.3,3134.5,243.7,81.3,28.9
0.205531,491.8,19.3,2659.2,55.2,3140.5,431.1,475.9,2593.9,3131.3,243.8,81.3,28.8
0.207531,492.1,18.7,2658.9,56.0,3143.8,416.4,477.1,2596,3128.3,244,81.4,29.1
0.209531,492.5,18.1,2658.1,56.7,3141.5,402.3,478.4,2598.4,3125.6,244.1,81.5,29.8
0.211531,492.8,17.6,2658.2,57.5,3137.2,391.7,479.8,2601.1,3123.1,244.3,81.5,30.9
0.213531,493.2,17.2,2659.5,58.1,3134.4,384.9,481.2,2604.1,3120.8,244.4,81.6,31.9
0.215531,493.6,16.9,2661.5,58.6,3135.3,377.1,482.7,2607.3,3118.7,244.5,81.7,32.8
0.217531,493.8,16.7,2663.1,59.1,3141.0,363.2,484.2,2610.8,3116.9,244.6,81.7,33.3
0.219531,494.0,16.8,2663.7,60.0,3147.7,342.3,485.8,2614.5,3115.2,244.7,81.8,33.5
0.221531,494.1,16.9,2663.2,61.1,3151.3,320.0,487.4,2618.4,3113.8,244.7,81.8,33.6
0.223531,494.2,17.1,2662.5,62.3,3152.4,303.9,489.1,2622.4,3112.5,244.8,81.9,33.6
0.225531,494.5,17.1,2661.8,63.8,3153.0,290.7,490.7,2626.5,3111.4,244.8,81.9,33.5
0.227531,494.9,17.1,2660.4,66.0,3152.7,276.9,492.4,2630.7,3110.5,244.8,81.9,33.4
0.229531,495.3,17.0,2656.8,69.5,3150.0,263.8,494.1,2634.9,3109.7,244.8,82,33.2
0.231531,495.6,16.9,2650.7,74.2,3144.7,255.2,495.7,2639.1,3109.1,244.8,82,32.9
0.233531,495.7,16.9,2643.6,78.4,3138.0,254.9,497.3,2643.3,3108.5,244.8,82,32.6
0.235531,495.7,17.0,2637.3,82.1,3130.0,262.4,498.9,2647.4,3108.1,244.8,82,32.4
0.237531,495.5,17.2,2632.2,85.8,3122.3,272.0,500.4,2651.4,3107.8,244.7,82,32.3
0.239531,495.3,17.6,2628.5,89.4,3118.6,274.9,501.9,2655.3,3107.6,244.7,82,32.4
0.241531,495.3,18.0,2627.2,91.2,3120.0,270.8,503.3,2659,3107.4,244.6,81.9,32.5
0.243531,495.3,18.4,2629.0,89.1,3122.1,269.4,504.6,2662.5,3107.3,244.5,81.9,32.6
0.245531,495.3,18.8,2632.5,84.0,3121.6,276.7,505.9,2665.8,3107.2,244.4,81.8,32.5
0.247531,495.2,19.4,2636.0,78.6,3119.8,291.2,507,2668.8,3107.1,244.2,81.7,32.1
0.249531,495.0,20.1,2638.8,74.0,3121.2,306.4,508.1,2671.6,3107.1,244.1,81.7,31.5
0.251531,494.7,21.0,2640.8,69.4,3128.0,316.8,509.1,2674,3107.1,244,81.6,30.7
0.253531,494.4,22.0,2641.9,64.1,3136.8,324.8,510,2676.2,3107,243.8,81.4,29.8
0.255531,494.2,23.0,2642.6,59.3,3140.4,339.3,510.7,2677.9,3107,243.6,81.3,29.1
0.257531,494.2,24.0,2642.9,55.8,3134.4,369.7,511.4,2679.4,3106.9,243.4,81.2,28.6
0.259531,494.5,24.9,2643.1,54.1,3117.1,416.3,512,2680.4,3106.8,243.2,81.1,28.3
0.261531,495.1,25.9,2643.5,54.0,3091.5,473.3,512.4,2681.1,3106.7,243,80.9,28.1
0.263531,495.6,27.2,2644.0,54.5,3065.9,532.3,512.8,2681.4,3106.5,242.8,80.8,28
0.265531,496.0,28.9,2644.8,53.8,3042.1,595.6,513,2681.3,3106.3,242.6,80.6,27.8
0.267531,496.5,30.7,2645.5,50.5,3022.4,655.1,513.1,2680.8,3106,242.4,80.5,27.5
0.269531,497.4,32.3,2645.3,45.6,3011.4,692.6,513.1,2679.9,3105.7,242.1,80.3,27.2
0.271531,498.8,33.4,2644.1,41.7,3013.6,682.4,513,2678.6,3105.3,241.9,80.2,27
0.273531,500.7,33.9,2642.1,40.6,3028.5,620.5,512.9,2676.9,3104.9,241.6,80,26.6
0.275531,502.5,34.5,2639.3,41.6,3050.2,541.1,512.6,2674.8,3104.5,241.4,79.8,26.3
0.277531,504.0,35.6,2634.9,43.5,3068.5,481.2,512.2,2672.4,3103.9,241.1,79.6,25.9
0.279531,505.3,37.1,2628.5,45.1,3074.8,459.1,511.8,2669.5,3103.4,240.9,79.5,25.5
0.281531,506.4,38.8,2621.3,44.9,3069.6,482.3,511.3,2666.3,3102.8,240.6,79.3,24.9
0.283531,507.4,41.0,2617.4,43.3,3059.5,539.5,510.7,2662.8,3102.2,240.4,79.1,24.5
0.285531,508.2,44.0,2617.2,42.2,3054.8,603.0,510,2658.9,3101.5,240.1,78.9,24.2
0.287531,508.9,48.0,2619.0,42.9,3061.5,655.5,509.3,2654.8,3100.8,239.9,78.8,24.2
0.289531,509.5,52.7,2620.5,45.9,3067.5,714.1,508.6,2650.3,3100.1,239.6,78.6,24.4
0.291531,509.8,57.4,2620.0,51.0,3057.9,795.1,507.8,2645.6,3099.4,239.4,78.5,24.8
0.293531,510.0,60.9,2616.4,56.8,3033.3,853.8,507,2640.7,3098.7,239.1,78.4,25.3
0.295531,510.0,62.7,2610.1,62.4,3010.6,828.7,506.2,2635.5,3098,238.9,78.3,25.8
0.297531,509.8,63.4,2603.4,64.5,3009.7,731.1,505.4,2630.1,3097.3,238.6,78.2,26
0.299531,509.3,64.1,2599.2,61.3,3027.9,634.6,504.6,2624.6,3096.7,238.4,78.2,26.3
0.301531,508.9,64.3,2598.3,56.5,3048.2,574.9,503.8,2619,3096.1,238.1,78.1,26.4
0.303531,509.0,63.7,2599.6,54.0,3056.9,557.7,503,2613.2,3095.5,237.9,78.1,26.6
0.305531,509.2,63.0,2601.4,53.9,3055.4,567.0,502.2,2607.4,3095,237.6,78,26.7
0.307531,509.1,63.4,2602.2,54.9,3055.8,575.0,501.5,2601.5,3094.6,237.4,78,26.9
0.309531,508.4,65.3,2601.4,55.7,3072.5,553.7,500.9,2595.5,3094.2,237.1,77.9,27
0.311531,507.4,68.2,2599.9,55.8,3099.4,510.1,500.3,2589.6,3093.9,236.9,77.8,27.1
0.313531,506.4,71.2,2598.1,55.2,3118.0,478.5,499.7,2583.7,3093.7,236.6,77.7,27.3
0.315531,505.5,73.8,2595.8,53.8,3127.7,466.6,499.2,2577.8,3093.6,236.3,77.6,27.4
0.317531,504.9,76.2,2592.5,51.3,3137.3,460.0,498.9,2572.1,3093.7,236.1,77.5,27.5
0.319531,504.5,78.7,2588.5,48.3,3152.7,445.4,498.5,2566.4,3093.8,235.8,77.3,27.7
0.321531,504.7,81.8,2585.1,46.3,3169.8,439.4,498.3,2560.8,3094.1,235.5,77.2,28
0.323531,505.2,85.0,2583.3,46.1,3184.3,467.0,498.2,2555.4,3094.4,235.3,77,28.2
0.325531,506.0,88.1,2582.5,47.1,3197.5,518.2,498.2,2550.1,3094.9,235,76.9,28.2
0.327531,507.3,89.8,2581.2,48.6,3209.6,550.4,498.3,2545,3095.6,234.7,76.7,27.9
0.329531,509.5,89.0,2578.1,50.4,3218.4,533.8,498.4,2540.2,3096.4,234.4,76.6,27.4
0.331531,511.9,86.1,2573.2,51.9,3222.6,493.7,498.7,2535.5,3097.3,234.1,76.4,26.6
0.333531,513.9,82.7,2568.2,53.3,3220.1,476.5,499.1,2531,3098.3,233.8,76.3,25.9
0.335531,515.2,80.0,2563.5,55.7,3209.4,486.4,499.6,2526.8,3099.5,233.5,76.1,25.2
0.337531,515.9,77.8,2559.1,59.2,3191.3,502.4,500.2,2522.8,3100.9,233.2,76,24.8
0.339531,516.3,75.2,2554.8,63.1,3172.0,504.3,500.9,2519.1,3102.3,232.9,75.9,24.6
0.341531,516.2,72.1,2550.8,66.8,3156.3,494.4,501.7,2515.6,3103.9,232.5,75.8,24.4
0.343531,515.5,69.0,2547.5,70.0,3143.7,491.9,502.6,2512.4,3105.6,232.2,75.7,24.3
0.345531,514.5,66.3,2544.7,73.6,3127.1,507.9,503.7,2509.4,3107.4,231.8,75.6,24.2
0.347531,513.0,64.0,2542.8,77.4,3102.3,542.1,504.7,2506.7,3109.4,231.5,75.5,24.2
0.349531,511.1,62.2,2542.5,80.1,3074.0,584.1,505.9,2504.3,3111.4,231.1,75.5,24.3
0.351531,509.0,61.0,2543.6,80.5,3056.2,627.0,507.2,2502.1,3113.6,230.7,75.4,24.4
0.353531,507.4,60.2,2545.2,79.4,3057.5,664.3,508.5,2500.2,3115.8,230.3,75.3,24.6
0.355531,506.5,59.6,2547.1,79.4,3074.3,697.6,509.9,2498.5,3118.1,229.9,75.2,24.6
0.357531,505.5,59.6,2549.8,81.9,3111.7,741.3,511.4,2497,3120.4,229.5,75.1,24.4
0.359531,504.1,60.3,2552.4,86.7,3169.2,807.3,512.9,2495.8,3122.9,229.1,75,24
0.361531,502.5,61.2,2551.1,93.5,3211.3,903.7,514.4,2494.8,3125.3,228.7,74.9,23.5
0.363531,501.2,62.1,2544.4,99.5,3187.7,1013.1,516,2494,3127.8,228.2,74.8,23
0.365531,500.5,63.2,2535.9,105.3,3098.4,1045.4,517.6,2493.3,3130.3,227.8,74.7,22.6
0.367531,501.4,65.1,2526.8,114.2,2998.2,960.2,519.2,2492.9,3132.8,227.3,74.6,22.3
0.369531,504.4,67.8,2516.7,122.5,2951.1,868.2,520.8,2492.6,3135.3,226.8,74.5,22.1
0.371531,508.4,71.7,2505.6,121.2,2981.2,860.4,522.4,2492.4,3137.8,226.3,74.5,22
0.373531,512.3,76.4,2493.9,110.6,3076.7,900.2,524,2492.4,3140.2,225.9,74.5,22
0.375531,516.4,81.3,2482.1,95.9,3199.5,884.2,525.5,2492.5,3142.6,225.4,74.4,22.1
0.377531,520.8,85.5,2475.2,82.2,3278.9,795.8,527,2492.6,3144.9,224.8,74.4,22.2
0.379531,525.1,88.3,2476.4,74.8,3288.5,721.1,528.5,2492.9,3147.1,224.3,74.5,22.5
0.381531,528.9,89.7,2482.8,76.8,3249.5,691.2,529.9,2493.2,3149.3,223.8,74.5,23
0.383531,531.9,90.0,2488.7,88.2,3192.6,703.3,531.3,2493.5,3151.3,223.3,74.5,23.4
0.385531,534.1,89.5,2490.7,107.9,3128.9,738.1,532.6,2493.9,3153.3,222.8,74.6,23.5
0.387531,535.4,88.4,2487.3,134.0,3065.4,760.7,533.8,2494.4,3155.1,222.3,74.6,23.3
0.389531,534.8,87.9,2479.1,162.1,3023.1,744.8,534.9,2494.8,3156.7,221.8,74.6,22.7
0.391531,531.9,88.4,2468.1,183.9,3019.0,695.4,535.9,2495.2,3158.2,221.3,74.5,21.8
0.393531,528.1,89.3,2458.3,190.1,3052.3,627.8,536.8,2495.6,3159.6,220.8,74.4,20.9
0.395531,525.7,89.9,2450.9,183.0,3107.8,545.9,537.6,2495.9,3160.8,220.3,74.3,20.1
0.397531,527.2,90.4,2444.0,170.6,3159.8,468.2,538.3,2496.3,3161.8,219.9,74.2,19.4
0.399531,532.8,91.1,2437.4,158.4,3194.2,423.4,538.8,2496.5,3162.6,219.4,74.1,18.7
0.401531,541.0,92.9,2434.1,150.6,3210.8,421.7,539.3,2496.8,3163.3,219,74,18.1
0.403531,549.2,95.8,2433.4,153.1,3207.8,446.9,539.6,2496.9,3163.8,218.6,74,17.6
0.405531,557.4,98.7,2428.9,168.7,3186.6,458.7,539.8,2497,3164.1,218.2,74,17.1
0.407531,565.3,100.6,2416.2,194.1,3161.8,410.1,539.8,2497,3164.2,217.8,74.1,17.1
