time,f1,b1,f2,b2,f3,b3,f1p,f2p,f3p,f0,intensity,harmonicity
0.025578,260.3,102.9,2103.9,679.4,2991.2,139.8,264,2500.6,2932.4,195.4,68.6,26.9
0.027578,257.8,101.6,2118.7,708.3,2999.4,154.6,263.4,2501.3,2932.6,195.6,68.9,26.9
0.029578,255.5,103.7,2155.3,767.6,2996.0,169.6,262.2,2502.4,2933,195.8,69.2,26.8
0.031578,253.4,107.9,2214.0,852.6,2978.3,185.0,260.6,2503.9,2933.6,196,69.6,26.5
0.033578,251.4,111.4,2282.4,964.8,2944.3,198.4,258.6,2505.9,2934.4,196.3,69.9,26.2
0.035578,249.5,112.2,2337.1,1121.4,2899.0,199.7,256.3,2508.3,2935.4,196.5,70.3,26
0.037578,247.6,113.0,2392.9,1321.1,2857.5,185.4,253.6,2511.1,2936.6,196.7,70.7,25.6
0.039578,245.8,115.6,2491.5,1522.4,2830.2,166.8,250.6,2514.3,2938.2,197,71.1,25.2
0.041578,243.9,117.8,2633.7,1678.6,2815.8,148.1,247.3,2517.8,2940,197.3,71.5,24.8
0.043578,241.8,117.4,2808.2,1789.6,2809.0,127.3,243.9,2521.6,2942.2,197.6,71.9,24.5
0.045578,239.7,114.2,2807.1,109.8,3000.5,1697.6,240.3,2525.8,2944.8,197.9,72.3,24.4
0.047578,238.0,110.9,2807.0,99.0,3047.4,1346.9,236.7,2530.2,2947.9,198.2,72.6,24.6
0.049578,236.5,108.8,2806.1,92.7,3024.2,1135.8,233,2534.9,2951.3,198.5,73,25.1
0.051578,235.0,106.8,2803.9,87.5,3012.4,1048.3,229.4,2539.8,2955.3,198.9,73.4,25.6
0.053578,233.1,103.3,2801.3,82.7,3003.0,1052.2,225.9,2544.9,2959.8,199.2,73.8,26.2
0.055578,231.0,98.3,2799.7,80.3,2986.1,1114.5,222.5,2550.1,2964.9,199.6,74.1,26.7
0.057578,228.9,93.5,2799.1,81.9,2972.1,1165.4,219.5,2555.4,2970.5,200,74.5,27.1
0.059578,227.2,89.9,2799.6,88.1,2984.6,1160.7,216.7,2560.9,2976.8,200.4,74.8,27.4
0.061578,225.5,86.4,2801.7,99.3,3020.9,1125.3,214.3,2566.3,2983.6,200.8,75.1,27.8
0.063578,223.6,80.3,2807.4,120.3,3055.8,1104.4,212.3,2571.8,2991.1,201.3,75.5,28.1
0.065578,221.5,71.2,2821.0,161.9,3034.5,1128.4,210.8,2577.3,2999.1,201.7,75.8,28.3
0.067578,219.7,61.0,2842.0,1173.9,2861.0,238.0,209.8,2582.7,3007.7,202.2,76.1,28.5
0.069578,218.6,52.0,2493.2,938.8,2941.6,260.3,209.3,2588,3016.9,202.7,76.4,28.7
0.071578,217.9,45.6,2356.8,623.5,2997.5,246.4,209.5,2593.2,3026.7,203.2,76.7,28.8
0.073578,217.1,40.9,2342.7,438.9,3035.1,280.6,210.2,2598.3,3036.9,203.7,77,28.6
0.075578,216.2,36.9,2388.8,362.9,3053.3,408.5,211.7,2603.2,3047.6,204.2,77.2,28.1
0.077578,215.8,34.1,2456.7,312.4,2975.1,1694.3,213.8,2607.8,3058.7,204.7,77.5,26.9
0.079578,216.4,32.9,2505.3,234.6,2950.5,1291.0,216.5,2612.3,3070,205.3,77.8,25.3
0.081578,218.1,32.3,2526.2,166.1,3043.3,1375.4,220,2616.5,3081.7,205.9,78.1,23.5
0.083578,220.8,32.1,2537.4,117.4,3086.6,710.8,224.1,2620.3,3093.4,206.5,78.4,21.8
0.085578,224.2,32.9,2544.8,86.1,3118.6,545.1,228.9,2623.9,3105.2,207.1,78.7,20.5
0.087578,227.9,36.2,2549.8,65.6,3142.1,413.1,234.3,2627.2,3117,207.7,79,19.8
0.089578,232.2,43.0,2553.8,51.7,3156.5,311.0,240.3,2630.1,3128.6,208.4,79.3,19.5
0.091578,237.5,53.0,2560.2,43.6,3162.5,241.5,247,2632.6,3140,209,79.5,19.3
0.093578,244.3,64.9,2573.3,39.8,3163.9,196.9,254.1,2634.7,3151,209.7,79.7,19.2
0.095578,251.9,76.0,2590.5,37.8,3165.2,171.8,261.8,2636.5,3161.6,210.4,79.9,19
0.097578,259.1,84.8,2605.2,36.2,3170.5,158.6,270,2637.8,3171.5,211.1,80,18.6
0.099578,265.8,91.1,2613.4,34.8,3181.5,154.6,278.5,2638.8,3180.7,211.8,80,18.3
0.101578,272.4,95.8,2615.9,33.4,3198.8,157.0,287.4,2639.3,3189.1,212.5,80,18
0.103578,280.1,100.1,2615.6,31.5,3223.1,161.0,296.6,2639.3,3196.6,213.3,80,17.7
0.105578,288.2,102.7,2615.2,29.3,3249.9,159.8,306.1,2638.9,3203,214.1,79.8,17.4
0.107578,297.5,105.8,2616.7,27.5,3270.3,153.8,315.7,2638.1,3208.3,214.9,79.6,17.3
0.109578,310.3,113.5,2620.6,26.4,3279.8,153.3,325.4,2636.8,3212.4,215.7,79.4,17.4
0.111578,326.2,122.6,2626.3,26.6,3283.2,164.2,335.2,2635,3215.1,216.5,79.1,17.4
0.113578,343.8,127.7,2633.2,28.6,3283.0,189.5,345,2632.7,3216.5,217.3,78.7,17.3
0.115578,359.1,125.6,2639.3,32.9,3272.2,226.5,354.7,2630,3216.5,218.2,78.2,17
0.117578,372.1,117.9,2643.3,39.5,3243.7,266.5,364.3,2626.8,3215,219.1,77.7,16.4
0.119578,384.4,105.7,2645.7,47.6,3209.7,298.7,373.7,2623.2,3211.9,219.9,77.1,15.6
0.121578,395.8,90.4,2647.6,55.6,3189.5,327.5,382.9,2619.1,3207.4,220.8,76.5,14.6
0.123578,407.8,72.1,2648.9,65.0,3178.8,372.1,391.8,2614.4,3201.3,221.8,75.9,13.7
0.125578,419.8,54.0,2648.2,78.0,3164.9,443.8,400.4,2609.4,3193.6,222.7,75.3,12.9
0.127578,431.1,38.4,2644.8,96.5,3137.2,544.3,408.7,2603.8,3184.5,223.6,74.8,12.1
0.129578,440.6,26.8,2637.2,121.3,3090.6,640.6,416.6,2597.7,3173.9,224.6,74.5,11.2
0.131578,447.4,19.9,2620.6,149.0,3045.1,647.1,424.1,2591.2,3161.8,225.6,74.4,10.5
0.133578,451.8,16.5,2588.3,167.1,3037.9,538.4,431.1,2584.2,3148.5,226.5,74.4,10
0.135578,453.8,16.0,2553.4,158.1,3062.2,406.9,437.7,2576.7,3133.8,227.5,74.7,9.8
0.137578,454.3,17.2,2533.7,134.2,3081.3,314.2,443.9,2568.8,3118,228.5,75.1,10.2
0.139578,454.2,19.1,2530.2,109.8,3086.2,262.9,449.7,2560.4,3101.1,229.5,75.5,10.9
0.141578,454.2,21.0,2532.1,93.4,3084.4,238.2,455,2551.5,3083.3,230.4,76,11.8
0.143578,454.6,22.5,2532.2,85.5,3082.2,231.8,459.8,2542.1,3064.7,231.4,76.4,12.8
0.145578,455.5,23.1,2530.5,85.4,3082.3,250.4,464.3,2532.3,3045.4,232.4,76.8,13.5
0.147578,457.0,22.3,2530.0,90.2,3087.9,305.3,468.3,2522,3025.6,233.4,77.1,14.1
0.149578,459.4,19.9,2532.2,97.2,3107.8,407.1,472,2511.3,3005.4,234.3,77.5,14.5
0.151578,462.9,16.8,2534.6,105.5,3150.8,537.7,475.4,2500.2,2985,235.3,77.8,14.9
0.153578,467.4,13.4,2533.4,120.3,3210.7,662.4,478.4,2488.6,2964.5,236.2,78.1,15.3
0.155578,472.3,10.4,2527.6,148.2,2854.2,4397.1,481.1,2476.5,2944.1,237.1,78.5,15.6
0.157578,477.0,8.0,2518.8,190.8,2818.4,2845.9,483.6,2464.1,2924,238,78.8,16
0.159578,481.2,6.3,2509.3,239.2,2821.6,2048.2,485.9,2451.3,2904.3,238.9,79.3,16.3
0.161578,484.4,5.3,2502.8,275.5,2818.3,1568.9,488.1,2438.1,2885.2,239.8,79.7,16.6
0.163578,487.0,4.9,2498.2,295.0,2820.3,1233.9,490.1,2424.5,2866.7,240.7,80.1,16.9
0.165578,489.1,5.1,2487.1,303.7,2805.5,954.8,492,2410.6,2849.2,241.5,80.5,17.3
0.167578,490.9,5.7,2460.4,311.0,2786.9,747.8,493.9,2396.3,2832.6,242.3,80.8,17.8
0.169578,492.7,6.6,2419.3,309.3,2784.3,604.8,495.8,2381.8,2817.1,243.2,81,18.3
0.171578,494.5,7.8,2377.7,297.6,2792.3,518.4,497.6,2366.9,2802.9,244,81.2,18.8
0.173578,496.2,9.2,2341.6,292.4,2798.2,464.0,499.6,2351.8,2790,244.8,81.2,19.3
0.175578,497.7,10.7,2315.0,305.3,2794.0,426.1,501.6,2336.4,2778.5,245.6,81.1,19.8
0.177578,498.9,12.5,2293.1,322.9,2785.9,386.7,503.7,2320.9,2768.4,246.4,80.8,20.1
0.179578,500.3,14.9,2271.3,319.3,2785.3,350.7,506,2305.2,2759.9,247.2,80.5,20.4
0.181578,502.0,17.9,2250.0,288.6,2792.9,328.5,508.4,2289.3,2753,248,80,20.6
0.183578,504.7,22.0,2229.3,242.0,2799.3,315.6,511,2273.3,2747.7,248.8,79.5,20.9
0.185578,508.6,26.7,2212.5,200.8,2791.6,307.8,513.7,2257.2,2743.9,249.6,79,21.1
0.187578,513.5,31.8,2198.5,175.1,2767.4,304.0,516.7,2241.1,2741.8,250.5,78.6,21.4
0.189578,518.9,36.6,2183.6,162.3,2736.4,296.9,519.8,2225,2741.3,251.3,78.2,21.8
0.191578,524.2,40.7,2166.0,155.9,2714.2,273.0,523,2208.9,2742.2,252.2,77.9,22.1
0.193578,529.1,44.4,2144.1,151.4,2710.7,234.5,526.5,2192.8,2744.7,253.1,77.6,22.2
0.195578,533.2,47.9,2120.0,148.1,2723.7,200.2,530.1,2176.9,2748.6,254,77.4,22.1
0.197578,536.8,50.8,2095.9,140.6,2743.7,176.3,533.8,2161.1,2753.9,255,77.3,21.5
0.199578,540.5,53.1,2076.2,124.5,2763.8,160.8,537.7,2145.5,2760.4,256,77.1,20.6
0.201578,544.7,54.7,2064.6,104.7,2779.0,153.8,541.6,2130.1,2768.1,257,76.9,19.6
0.203578,549.1,56.6,2060.3,88.0,2787.3,157.7,545.6,2115,2776.8,258,76.6,18.6
0.205578,553.5,59.9,2061.7,78.8,2789.5,173.3,549.7,2100.2,2786.5,259.1,76.2,17.7
0.207578,558.4,64.7,2065.9,75.1,2792.4,190.7,553.7,2085.6,2797,260.1,75.7,16.9
0.209578,565.1,71.3,2070.5,72.8,2800.0,197.5,557.8,2071.4,2808.3,261.2,75.2,16.3
0.211578,573.6,79.8,2073.2,70.5,2809.6,197.1,561.8,2057.6,2820.1,262.4,74.5,15.6
0.213578,584.4,91.4,2072.8,68.8,2819.0,202.6,565.7,2044.2,2832.3,263.5,73.8,15
0.215578,595.7,106.0,2068.6,69.4,2827.2,224.6,569.5,2031.3,2844.9,264.7,73.1,14.4
0.217578,604.6,122.5,2058.9,74.3,2833.9,270.8,573.1,2018.8,2857.6,265.9,72.5,13.8
0.219578,605.6,137.0,2039.4,83.3,2840.3,346.8,576.6,2006.8,2870.5,267,72.1,13.2
0.221578,597.9,143.3,2008.4,89.0,2856.0,433.1,579.8,1995.3,2883.3,268.2,71.9,12.7
0.223578,588.4,141.8,1972.7,81.4,2900.8,484.9,582.9,1984.3,2895.9,269.4,71.9,12.3
0.225578,583.5,140.7,1947.9,67.5,2957.1,465.9,585.6,1973.8,2908.3,270.6,72,12
0.227578,580.8,146.0,1936.9,61.1,2986.0,428.8,588.1,1963.9,2920.3,271.9,72.1,12.1
0.229578,575.8,159.8,1936.2,64.7,2991.2,427.1,590.4,1954.5,2931.9,273.1,72.2,12.3
0.231578,567.7,181.3,1941.7,74.8,2995.3,458.3,592.3,1945.6,2942.9,274.3,72.3,12.7
0.233578,559.2,211.8,1950.9,85.6,3006.8,490.7,593.9,1937.3,2953.4,275.5,72.3,13.1
0.235578,556.5,242.6,1960.1,90.4,3016.2,485.3,595.2,1929.6,2963.2,276.6,72.4,13.4
0.237578,561.9,251.9,1965.4,89.0,3011.5,443.1,596.1,1922.3,2972.4,277.8,72.4,13.5
0.239578,571.3,231.1,1965.8,85.0,2996.2,393.3,596.8,1915.6,2980.8,279,72.3,13.6
0.241578,580.5,200.6,1964.1,82.1,2983.5,362.9,597.1,1909.5,2988.5,280.1,72.3,13.7
0.243578,590.0,176.0,1963.3,84.3,2977.7,364.9,597.2,1903.8,2995.4,281.3,72.2,13.8
0.245578,600.9,164.6,1965.0,95.8,2973.6,404.0,596.9,1898.6,3001.6,282.4,72.1,13.8
0.247578,613.7,163.6,1969.7,119.3,2962.6,465.0,596.4,1893.8,3007.1,283.5,72,13.8
0.249578,625.2,165.8,1975.0,152.6,2946.9,509.0,595.7,1889.6,3011.8,284.5,72,13.7
0.251578,628.0,165.5,1973.1,190.2,2936.2,512.4,594.8,1885.7,3015.9,285.6,72.1,13.6
0.253578,616.6,162.4,1956.5,240.9,2933.6,505.6,593.6,1882.2,3019.3,286.6,72.3,13.6
0.255578,594.6,155.1,1922.7,298.3,2938.1,511.7,592.4,1879.2,3022,287.6,72.6,13.6
0.257578,574.6,145.3,1884.0,312.2,2952.6,514.7,590.9,1876.4,3024.3,288.6,72.8,13.8
0.259578,564.1,141.7,1862.6,264.9,2980.4,499.8,589.4,1874,3026,289.5,73,14
0.261578,563.5,146.4,1854.3,204.9,3010.9,462.9,587.9,1871.9,3027.3,290.4,73,14.4
0.263578,571.7,153.3,1845.9,156.3,3034.6,405.8,586.3,1870.1,3028.1,291.3,72.9,14.7
0.265578,583.2,153.0,1834.4,126.7,3045.5,348.5,584.7,1868.5,3028.7,292.2,72.7,15.1
0.267578,589.7,145.9,1824.8,110.2,3046.8,311.9,583.1,1867.2,3029,293,72.5,15.5
0.269578,589.3,137.7,1822.6,97.7,3044.0,303.3,581.7,1866,3029,293.7,72.3,15.9
0.271578,585.6,129.0,1825.2,84.3,3041.7,308.6,580.3,1865.1,3028.9,294.5,72.1,16.4
0.273578,580.7,118.2,1827.2,69.7,3044.4,303.5,579,1864.3,3028.7,295.2,72.1,16.9
0.275578,577.5,105.7,1827.1,56.0,3051.7,274.2,577.9,1863.6,3028.5,295.9,72.2,17.5
0.277578,577.8,92.4,1826.1,44.7,3059.1,229.2,577,1863.1,3028.2,296.5,72.5,18.2
0.279578,580.8,78.9,1826.6,37.0,3063.7,185.9,576.3,1862.8,3028,297.1,72.7,19.2
0.281578,583.9,67.4,1829.9,33.6,3063.7,157.6,575.7,1862.5,3027.8,297.6,72.9,20.1
0.283578,585.5,58.6,1836.6,33.9,3060.5,145.2,575.4,1862.4,3027.7,298.1,73,20.8
0.285578,585.6,53.2,1845.4,37.6,3059.3,145.1,575.3,1862.3,3027.6,298.6,73.1,20.9
