time,f1,b1,f2,b2,f3,b3,f1p,f2p,f3p,f0,intensity,harmonicity
0.025823,593.0,96.4,2388.1,679.4,3189.2,115.0,687.6,2401.3,3220,230.2,73.8,5.9
0.027823,607.7,90.2,2444.2,703.5,3193.6,102.5,687.2,2401.2,3219.8,230.1,73.9,6
0.029823,620.9,82.5,2500.5,730.3,3197.5,100.2,686.5,2401,3219.4,230,74,7.7
0.031823,631.8,74.5,2542.0,726.1,3198.7,97.5,685.6,2400.7,3218.8,230,74.2,10.2
0.033823,640.5,67.0,2553.9,684.0,3198.3,88.8,684.4,2400.4,3218.1,229.9,74.4,13
0.035823,646.6,61.0,2537.2,636.5,3198.1,77.4,683,2400,3217.2,229.8,74.6,15.6
0.037823,651.1,56.2,2501.8,605.0,3198.6,67.6,681.3,2399.5,3216.1,229.8,74.8,17.4
0.039823,654.2,53.0,2456.4,596.9,3198.5,61.1,679.4,2398.9,3214.9,229.7,75,18.3
0.041823,656.0,51.1,2409.3,600.1,3197.2,56.1,677.3,2398.3,3213.5,229.6,75.1,18.7
0.043823,656.9,49.7,2367.6,603.9,3195.6,51.8,675,2397.5,3211.9,229.5,75.3,18.7
0.045823,657.4,48.6,2344.8,611.2,3195.3,50.2,672.6,2396.7,3210.1,229.5,75.4,18.7
0.047823,658.0,47.5,2337.6,626.8,3196.3,51.7,670,2395.8,3208.1,229.4,75.5,18.7
0.049823,658.8,46.2,2335.2,643.5,3197.3,55.0,667.2,2394.8,3205.8,229.3,75.5,18.9
0.051823,659.9,44.4,2329.6,658.6,3197.5,58.7,664.3,2393.8,3203.4,229.2,75.6,19
0.053823,661.7,41.8,2317.7,668.6,3196.8,61.8,661.4,2392.6,3200.8,229.1,75.6,19.1
0.055823,664.0,38.8,2300.6,664.1,3195.4,62.4,658.3,2391.4,3197.9,229,75.7,19.2
0.057823,666.8,35.4,2279.7,640.0,3193.8,60.0,655.2,2390,3194.9,228.9,75.7,19.4
0.059823,669.2,32.4,2266.3,598.1,3193.5,56.3,652.1,2388.6,3191.6,228.8,75.8,19.7
0.061823,671.0,30.2,2271.5,546.3,3195.7,54.5,649,2387,3188,228.6,75.8,20.1
0.063823,672.1,28.9,2290.8,486.1,3199.3,55.8,645.8,2385.4,3184.2,228.5,75.9,20.5
0.065823,672.8,28.3,2309.0,430.5,3201.0,59.2,642.8,2383.6,3180.2,228.4,75.9,20.9
0.067823,673.1,28.3,2321.3,387.2,3198.3,65.4,639.7,2381.7,3175.9,228.3,76,21.1
0.069823,673.0,29.2,2328.5,366.0,3190.8,75.5,636.8,2379.8,3171.4,228.1,76,21.3
0.071823,672.5,31.0,2334.1,365.8,3181.2,88.3,634,2377.7,3166.6,228,76,21.4
0.073823,672.0,33.3,2341.9,376.7,3172.5,101.0,631.3,2375.5,3161.6,227.8,76,21.4
0.075823,671.6,35.3,2351.8,387.0,3166.6,109.4,628.7,2373.2,3156.4,227.7,76,21.4
0.077823,671.3,37.3,2361.5,400.2,3162.5,115.7,626.3,2370.8,3150.9,227.5,75.9,21.5
0.079823,670.2,39.8,2368.4,431.2,3159.7,124.7,624.1,2368.3,3145.2,227.3,75.8,21.6
0.081823,668.6,42.8,2373.8,473.8,3157.2,138.9,622,2365.6,3139.3,227.2,75.7,21.8
0.083823,667.0,46.1,2383.4,491.9,3153.6,160.3,620.2,2362.8,3133.1,227,75.5,21.9
0.085823,665.8,49.5,2399.1,470.9,3150.3,189.1,618.5,2360,3126.8,226.8,75.4,22.1
0.087823,664.8,53.5,2412.9,442.3,3147.7,220.9,617.1,2356.9,3120.2,226.6,75.2,22.3
0.089823,664.2,57.4,2418.8,433.8,3144.5,246.8,615.9,2353.8,3113.5,226.4,75,22.6
0.091823,664.2,60.5,2421.1,449.6,3137.7,268.4,615,2350.6,3106.6,226.2,74.9,22.9
0.093823,664.8,63.3,2423.4,486.4,3122.8,291.5,614.3,2347.2,3099.5,226,74.7,23.2
0.095823,665.5,66.4,2423.7,537.9,3099.6,311.3,613.8,2343.7,3092.4,225.8,74.4,23.5
0.097823,665.4,70.9,2417.7,605.3,3073.0,321.2,613.6,2340.1,3085.1,225.6,74.2,23.6
0.099823,663.2,77.2,2404.1,674.3,3057.6,320.9,613.6,2336.4,3077.7,225.3,73.9,23.4
0.101823,658.7,84.2,2383.6,727.1,3058.7,323.8,613.8,2332.5,3070.2,225.1,73.7,23.1
0.103823,652.3,90.6,2352.0,744.6,3071.9,338.1,614.3,2328.6,3062.8,224.9,73.4,22.7
0.105823,646.4,95.2,2317.6,699.9,3088.9,361.9,615,2324.5,3055.2,224.6,73.2,22.2
0.107823,641.9,99.6,2294.0,612.0,3100.9,394.0,615.9,2320.3,3047.7,224.3,73,21.9
0.109823,639.3,105.0,2285.5,526.2,3096.9,422.0,617,2316,3040.3,224.1,72.8,21.7
0.111823,637.5,111.5,2286.1,463.9,3076.0,438.0,618.2,2311.6,3032.8,223.8,72.6,21.5
0.113823,634.2,118.8,2290.6,423.0,3045.8,454.1,619.6,2307.1,3025.5,223.5,72.4,21.4
0.115823,627.6,125.2,2291.7,401.8,3019.0,477.4,621.2,2302.5,3018.3,223.2,72.2,21.2
0.117823,618.1,131.0,2284.9,388.7,3003.1,494.8,622.9,2297.8,3011.2,223,72,20.9
0.119823,608.7,138.0,2273.1,370.7,3002.5,484.2,624.7,2293,3004.3,222.7,71.8,20.5
0.121823,600.6,147.3,2262.7,344.1,3009.8,452.0,626.6,2288.1,2997.6,222.4,71.6,19.9
0.123823,591.6,157.9,2253.5,314.7,3014.5,422.3,628.5,2283.1,2991.2,222.1,71.5,19.3
0.125823,580.4,164.6,2244.8,295.5,3011.8,426.7,630.6,2278.1,2984.9,221.7,71.3,18.8
0.127823,567.9,167.2,2236.8,287.8,3004.6,485.2,632.6,2272.9,2979,221.4,71.3,18.5
0.129823,560.2,171.2,2233.0,278.5,3001.6,588.8,634.6,2267.8,2973.4,221.1,71.2,18.5
0.131823,561.2,182.1,2233.7,252.7,3017.1,669.1,636.6,2262.5,2968.1,220.8,71.2,18.8
0.133823,570.5,197.6,2235.2,218.4,3048.7,665.6,638.6,2257.2,2963.2,220.4,71.2,19.2
0.135823,582.6,208.0,2237.6,197.3,3069.0,619.4,640.4,2251.8,2958.7,220.1,71.3,19.5
0.137823,592.0,211.0,2241.6,194.7,3071.2,610.9,642.2,2246.4,2954.5,219.8,71.3,19.8
0.139823,596.1,211.6,2248.2,213.0,3053.7,677.6,643.9,2241,2950.8,219.4,71.4,19.9
0.141823,598.1,215.5,2259.1,251.9,3005.5,802.2,645.4,2235.5,2947.6,219.1,71.5,20
0.143823,600.7,223.7,2278.4,315.8,2907.3,948.6,646.8,2230,2944.8,218.7,71.5,20
0.145823,603.2,231.3,2304.4,387.4,2774.0,1057.0,648.1,2224.4,2942.5,218.3,71.6,20.1
0.147823,604.4,234.5,2321.4,430.7,2647.1,1105.2,649.1,2218.9,2940.6,218,71.7,20.1
0.149823,605.1,235.1,2297.5,419.7,2600.2,1073.9,649.9,2213.3,2939.3,217.6,71.7,20
0.151823,606.2,238.9,2253.1,375.3,2614.8,1010.6,650.5,2207.8,2938.5,217.3,71.8,20
0.153823,608.8,252.0,2214.0,321.3,2663.7,943.1,650.9,2202.2,2938.1,216.9,71.8,19.8
0.155823,615.6,278.0,2187.5,276.5,2744.4,852.8,651,2196.7,2938.3,216.5,71.9,19.7
0.157823,629.5,318.0,2171.4,245.5,2835.1,737.6,650.9,2191.2,2939,216.1,71.9,19.6
0.159823,647.4,360.7,2165.5,237.3,2904.3,653.6,650.5,2185.7,2940.2,215.8,72,19.5
0.161823,661.2,396.7,2168.2,251.9,2947.0,631.4,649.8,2180.2,2941.8,215.4,72,19.2
0.163823,670.9,430.6,2176.7,285.8,2966.9,656.2,648.9,2174.8,2944,215,72,19.1
0.165823,678.2,460.6,2181.0,327.0,2961.3,690.1,647.7,2169.4,2946.6,214.6,72.1,18.9
0.167823,684.1,483.4,2169.2,353.5,2949.8,679.9,646.3,2164.1,2949.7,214.3,72.2,19
0.169823,691.1,487.0,2144.9,324.4,2974.6,597.2,644.6,2158.8,2953.3,213.9,72.3,19.3
0.171823,695.7,472.8,2126.8,257.3,3024.8,486.9,642.7,2153.6,2957.2,213.5,72.4,19.7
0.173823,692.8,453.3,2115.5,187.4,3068.3,385.5,640.5,2148.4,2961.5,213.1,72.6,20.3
0.175823,685.0,439.6,2107.8,136.3,3091.5,317.5,638.1,2143.4,2966.3,212.8,72.8,20.8
0.177823,675.6,435.2,2103.1,102.9,3101.7,276.2,635.4,2138.4,2971.3,212.4,73,21
0.179823,664.2,444.1,2102.0,86.3,3105.7,258.4,632.6,2133.4,2976.7,212,73.1,21.1
0.181823,650.7,463.4,2102.9,80.6,3106.9,256.8,629.6,2128.6,2982.3,211.7,73.3,20.9
0.183823,633.0,491.2,2103.4,80.5,3104.2,269.0,626.4,2123.9,2988.2,211.3,73.5,20.7
0.185823,609.1,521.8,2102.0,83.1,3094.4,297.4,623.1,2119.2,2994.3,211,73.7,20.5
0.187823,573.8,547.2,2098.8,85.9,3073.9,346.5,619.6,2114.7,3000.6,210.6,73.9,20.6
0.189823,530.3,547.8,2094.5,86.6,3045.7,408.7,616.1,2110.3,3007,210.3,74.1,20.9
0.191823,493.8,522.8,2090.4,84.4,3023.5,458.5,612.4,2105.9,3013.5,210,74.3,21.3
0.193823,468.8,493.6,2087.2,82.0,3020.5,475.8,608.8,2101.7,3020.1,209.7,74.5,21.8
0.195823,452.4,477.5,2085.2,84.0,3029.1,463.4,605.1,2097.6,3026.7,209.4,74.7,22.4
0.197823,440.6,480.7,2084.0,91.2,3032.3,448.7,601.4,2093.6,3033.2,209.1,74.9,22.8
0.199823,436.9,515.2,2083.6,98.2,3029.2,442.2,597.7,2089.7,3039.7,208.8,75.1,23.3
0.201823,452.7,586.5,2083.7,99.1,3026.6,431.0,594.2,2085.9,3046.1,208.5,75.3,23.7
0.203823,512.4,653.3,2083.1,94.5,3026.2,404.5,590.7,2082.3,3052.4,208.2,75.5,24.1
0.205823,582.8,636.7,2081.1,89.3,3026.9,366.2,587.3,2078.8,3058.4,208,75.7,24.5
0.207823,637.3,584.8,2078.4,87.2,3031.8,317.4,584.1,2075.4,3064.3,207.7,75.9,24.7
0.209823,675.5,546.0,2077.6,91.9,3043.8,272.0,581,2072.1,3069.9,207.4,76.1,24.8
0.211823,704.6,528.6,2080.4,103.6,3058.5,246.2,578.2,2068.9,3075.1,207.2,76.3,24.7
0.213823,732.9,513.6,2085.1,117.4,3074.6,238.7,575.5,2065.9,3080.1,207,76.5,24.6
0.215823,758.9,490.7,2086.4,123.9,3090.9,238.9,573.2,2063,3084.7,206.7,76.7,24.5
0.217823,781.6,463.9,2082.5,121.8,3105.5,232.3,571.1,2060.2,3088.9,206.5,76.9,24.5
0.219823,798.0,444.2,2076.3,116.5,3112.7,212.3,569.2,2057.5,3092.8,206.3,77.1,24.6
0.221823,805.9,435.3,2071.9,113.6,3114.0,185.3,567.7,2054.9,3096.1,206.1,77.2,24.8
0.223823,805.0,436.8,2070.6,114.9,3114.2,158.2,566.6,2052.5,3099,205.9,77.4,25
0.225823,796.7,446.8,2071.8,119.4,3114.9,138.0,565.7,2050.2,3101.5,205.7,77.6,25.1
0.227823,783.5,461.5,2072.3,121.8,3114.7,124.7,565.3,2047.9,3103.4,205.5,77.7,25.2
0.229823,767.1,481.6,2067.7,116.2,3113.3,121.2,565.2,2045.8,3104.8,205.3,77.9,25.2
0.231823,747.9,506.7,2058.6,104.7,3111.8,128.2,565.4,2043.8,3105.7,205.1,78,25.1
0.233823,723.9,534.8,2047.6,91.9,3111.5,144.7,566.1,2042,3106.1,204.9,78.1,25
0.235823,694.5,565.2,2038.8,82.4,3112.6,168.1,567.1,2040.2,3106,204.8,78.2,25
0.237823,653.5,601.6,2033.7,76.5,3112.2,196.0,568.5,2038.5,3105.3,204.6,78.3,25
0.239823,598.6,641.7,2033.5,74.6,3108.2,219.2,570.3,2036.9,3104.1,204.4,78.5,25.1
0.241823,531.8,678.9,2035.3,75.9,3105.8,231.5,572.5,2035.4,3102.4,204.2,78.6,25.4
0.243823,452.7,700.4,2034.8,78.5,3109.9,230.6,575,2034,3100.2,204,78.6,25.6
0.245823,386.0,690.1,2030.7,78.9,3116.4,215.3,577.9,2032.7,3097.5,203.8,78.7,25.9
0.247823,350.3,675.3,2025.5,74.6,3117.5,192.9,581.1,2031.5,3094.3,203.7,78.8,25.9
0.249823,338.2,684.1,2022.5,67.4,3110.7,176.1,584.6,2030.3,3090.7,203.5,78.9,25.9
0.251823,325.6,691.9,2021.6,62.3,3100.6,171.7,588.5,2029.2,3086.7,203.3,78.9,25.7
0.253823,309.4,684.3,2020.7,61.7,3090.5,179.9,592.6,2028.3,3082.3,203.1,79,25.4
0.255823,319.3,699.7,2019.0,65.1,3082.5,194.9,597,2027.3,3077.4,202.9,79,25.2
0.257823,391.4,725.0,2017.1,70.9,3075.8,205.9,601.6,2026.5,3072.3,202.7,79.1,25
0.259823,480.3,677.3,2016.0,75.4,3066.1,204.1,606.4,2025.7,3066.8,202.5,79.1,24.8
0.261823,535.9,616.6,2015.2,76.9,3048.0,195.3,611.4,2025,3061.1,202.2,79.2,24.6
0.263823,562.2,589.4,2013.8,77.5,3021.1,185.5,616.5,2024.3,3055.2,202,79.2,24.5
0.265823,570.5,600.6,2013.5,79.6,2998.9,173.5,621.8,2023.7,3049,201.8,79.2,24.3
0.267823,575.4,633.6,2016.9,86.0,2991.7,159.1,627.1,2023.1,3042.7,201.6,79.2,24.2
0.269823,588.2,660.5,2023.6,96.5,2997.6,148.1,632.5,2022.6,3036.3,201.3,79.2,24.1
0.271823,611.5,654.5,2028.6,105.1,3006.5,143.0,637.9,2022.1,3029.9,201.1,79.2,24.1
0.273823,638.3,613.5,2027.5,106.2,3012.4,143.3,643.3,2021.7,3023.4,200.8,79.2,24.1
0.275823,656.3,564.6,2021.9,101.8,3010.4,148.3,648.6,2021.3,3017,200.5,79.2,24.1
0.277823,663.6,534.3,2017.7,100.0,2997.1,154.4,653.7,2020.9,3010.6,200.2,79.1,24.1
0.279823,663.5,527.5,2018.0,106.1,2976.0,156.1,658.8,2020.6,3004.3,200,79.1,24
0.281823,662.4,526.3,2020.9,119.4,2955.4,154.5,663.7,2020.3,2998.2,199.7,79,24
0.283823,662.1,526.1,2023.1,141.6,2935.8,155.2,668.4,2020,2992.3,199.4,78.9,23.9
0.285823,661.5,537.3,2022.3,173.2,2917.4,162.5,672.8,2019.7,2986.7,199,78.8,23.8
0.287823,663.7,556.6,2018.6,211.8,2898.8,178.4,676.9,2019.5,2981.3,198.7,78.7,23.6
0.289823,672.7,561.0,2015.4,242.8,2883.5,201.2,680.8,2019.3,2976.2,198.4,78.6,23.4
0.291823,686.9,533.5,2015.4,253.4,2877.3,223.9,684.3,2019.1,2971.5,198,78.4,23
0.293823,700.1,480.2,2017.1,243.3,2886.9,242.2,687.5,2018.9,2967.2,197.7,78.2,22.6
0.295823,707.1,426.6,2015.6,221.5,2915.2,254.3,690.2,2018.7,2963.3,197.3,78.1,22.3
0.297823,711.8,370.1,2007.9,191.8,2960.6,252.0,692.5,2018.6,2959.9,196.9,77.8,21.9
0.299823,717.9,311.4,1997.1,162.6,3006.9,225.3,694.5,2018.4,2956.9,196.5,77.6,21.5
0.301823,725.9,263.9,1992.9,145.9,3030.3,189.2,695.9,2018.3,2954.4,196.1,77.3,21.2
0.303823,736.2,229.5,2002.9,141.4,3022.9,162.2,696.9,2018.2,2952.5,195.7,77,20.8
0.305823,745.4,202.1,2021.4,136.5,2999.7,149.1,697.4,2018,2951.1,195.3,76.7,20.5
0.307823,751.3,178.6,2036.7,124.1,2977.8,146.6,697.4,2017.9,2950.2,194.9,76.4,20.1
0.309823,753.4,165.6,2042.2,111.6,2966.2,159.9,696.9,2017.8,2949.9,194.5,76,19.6
0.311823,753.9,159.2,2040.8,103.6,2964.7,185.7,695.9,2017.7,2950.2,194,75.6,19.2
0.313823,754.7,149.4,2037.1,98.1,2968.4,205.3,694.4,2017.6,2951,193.6,75.1,18.7
0.315823,756.2,134.8,2034.4,93.8,2970.7,196.6,692.4,2017.4,2952.4,193.1,74.6,18.2
0.317823,757.7,123.1,2034.3,90.9,2973.2,174.2,689.9,2017.3,2954.4,192.7,74.1,17.7
0.319823,757.4,123.6,2036.4,92.4,2980.3,164.4,687,2017.2,2956.9,192.2,73.6,17.1
0.321823,752.0,136.5,2039.1,100.5,2989.4,175.8,683.5,2017.1,2959.9,191.8,73,16.4
0.323823,737.7,152.4,2042.4,116.3,2994.3,204.9,679.6,2017,2963.5,191.3,72.4,15.6
0.325823,717.9,153.3,2044.7,136.6,2990.5,237.7,675.3,2016.8,2967.6,190.9,71.8,14.9
0.327823,701.9,134.2,2043.0,156.1,2980.2,260.1,670.5,2016.7,2972.1,190.4,71.2,14.2
0.329823,695.4,109.7,2033.2,162.9,2971.3,260.7,665.4,2016.6,2977.2,189.9,70.6,13.5
0.331823,694.0,90.5,2016.2,151.5,2969.3,246.2,659.8,2016.5,2982.6,189.5,70,12.7
0.333823,692.8,76.1,1996.8,127.0,2975.1,234.2,654,2016.4,2988.4,189,69.5,12
0.335823,687.5,68.0,1985.3,111.2,2991.2,265.1,647.8,2016.2,2994.6,188.6,69,11.4
0.337823,676.0,63.1,1983.1,114.3,3025.9,385.9,641.4,2016.1,3001.1,188.1,68.7,11
0.339823,662.5,58.0,1984.1,125.1,3074.2,555.8,634.8,2016,3007.9,187.7,68.4,10.9
0.341823,649.2,53.8,1983.1,135.9,3115.2,677.6,627.9,2015.9,3014.9,187.2,68.2,10.9
0.343823,634.8,50.9,1981.1,144.9,3134.7,727.8,620.9,2015.7,3022.1,186.8,68.2,11.1
0.345823,621.0,49.5,1984.1,146.4,3136.7,734.5,613.8,2015.6,3029.5,186.3,68.3,11.4
0.347823,607.6,49.1,1995.0,137.0,3134.6,718.4,606.6,2015.5,3037,185.9,68.5,11.7
0.349823,595.6,49.1,2007.2,120.8,3132.8,668.2,599.4,2015.4,3044.5,185.5,68.8,12.2
0.351823,585.0,48.4,2014.9,107.0,3135.6,585.0,592.2,2015.2,3052,185,69.1,13
0.353823,574.5,46.6,2018.1,100.1,3139.4,485.7,585,2015.1,3059.5,184.6,69.4,13.7
0.355823,564.6,43.8,2017.3,103.6,3128.3,417.9,577.9,2015,3067,184.2,69.8,14.3
0.357823,554.7,40.4,2013.8,117.5,3097.7,378.4,571,2014.9,3074.2,183.8,70,14.7
0.359823,546.3,37.6,2010.5,131.7,3057.7,336.5,564.3,2014.8,3081.4,183.5,70.3,14.7
0.361823,540.4,36.3,2011.4,135.9,3028.0,290.5,557.7,2014.7,3088.3,183.1,70.4,14.5
0.363823,535.5,36.2,2015.6,134.0,3013.2,255.7,551.5,2014.6,3094.9,182.8,70.4,14.1
0.365823,530.9,37.6,2017.9,135.3,3013.0,244.6,545.5,2014.5,3101.2,182.4,70.3,13.5
0.367823,525.3,41.6,2015.0,143.9,3026.3,252.3,539.8,2014.4,3107.2,182.1,70.1,12.7
0.369823,517.8,49.6,2007.4,154.5,3048.8,261.1,534.6,2014.3,3112.8,181.8,69.7,11.6
0.371823,507.8,62.0,1999.7,158.9,3067.9,254.1,529.7,2014.3,3118,181.6,69.2,10.1
0.373823,493.2,80.0,1996.9,154.1,3074.5,232.8,525.3,2014.2,3122.7,181.3,68.5,8.5
0.375823,474.3,99.9,2000.1,143.4,3069.3,214.8,521.3,2014.1,3127,181.1,67.8,7.1
0.377823,454.7,114.5,2006.5,131.6,3059.1,211.9,517.8,2014.1,3130.7,180.9,66.9,6
0.379823,450.3,116.4,2013.7,124.7,3051.3,231.0,514.8,2014,3133.9,180.7,65.9,5.3
0.381823,462.8,109.6,2021.0,129.2,3055.5,279.1,512.3,2014,3136.5,180.5,64.8,5
0.383823,480.7,97.9,2030.0,151.8,3085.3,374.1,510.3,2014,3138.6,180.4,63.6,4.8
0.385823,496.6,85.9,2039.7,191.8,3137.6,491.5,508.9,2014,3140.1,180.3,62.3,4.7
0.387823,511.4,78.7,2049.2,244.3,3187.2,568.5,508.1,2013.9,3141,180.2,61.2,4.6
0.389823,523.4,85.7,2064.7,284.0,3222.8,578.0,507.8,2013.9,3141.3,180.1,60.5,4.5
