time,f1,b1,f2,b2,f3,b3,f1p,f2p,f3p,f0,intensity,harmonicity
0.025710,213.7,37.2,2808.6,701.8,4071.3,300.4,225.9,2766.5,4136.5,212.1,74.4,26.5
0.027710,215.7,47.8,2862.7,650.4,4083.7,246.8,228.1,2765.6,4126.7,212.8,74.3,25.6
0.029710,218.0,59.3,2849.4,548.7,4080.8,207.9,231.7,2764.2,4110.5,213.6,74.3,24.3
0.031710,220.8,72.6,2796.1,431.6,4073.4,190.3,236.7,2762.2,4088.3,214.4,74.2,22.8
0.033710,224.7,89.3,2736.6,322.9,4068.4,202.3,242.8,2759.6,4060.8,215.3,74,21.2
0.035710,230.0,109.6,2698.4,250.5,4070.5,258.4,249.9,2756.5,4028.6,216.1,73.7,19.7
0.037710,237.3,137.8,2683.6,209.6,4079.8,388.7,257.7,2752.9,3992.4,217,73.3,18.3
0.039710,246.5,173.0,2686.8,191.2,4081.8,608.5,266.2,2748.8,3953,218,72.8,17.1
0.041710,258.7,206.9,2696.2,183.7,4044.1,839.2,275,2744.3,3911.4,218.9,72.2,16
0.043710,278.1,229.5,2703.6,180.2,3966.8,955.4,284,2739.3,3868.6,219.9,71.4,15
0.045710,305.7,232.3,2706.1,179.1,3887.5,929.0,292.8,2734,3825.5,220.9,70.6,13.9
0.047710,341.5,219.4,2706.7,182.7,3800.7,814.0,301.3,2728.3,3783,221.8,69.7,12.7
0.049710,377.6,198.9,2708.8,194.7,3696.9,659.7,309.2,2722.3,3742,222.8,69,11
0.051710,400.5,178.8,2711.5,213.2,3596.3,512.8,316.4,2716.1,3703.4,223.8,68.7,8.9
0.053710,401.2,163.2,2712.9,233.9,3517.7,401.1,322.6,2709.8,3667.9,224.7,69,7
0.055710,383.1,153.4,2716.5,251.5,3475.8,348.2,327.8,2703.4,3636.2,225.6,69.9,5.5
0.057710,357.3,143.3,2723.1,262.3,3460.6,334.9,331.9,2696.9,3608.8,226.5,71,5
0.059710,333.4,129.3,2725.5,261.4,3461.6,339.4,334.7,2690.6,3586.1,227.3,72.1,5.7
0.061710,315.0,113.2,2720.3,252.3,3473.1,352.4,336.3,2684.4,3568.3,228.1,73,7.5
0.063710,301.0,96.7,2707.8,235.9,3498.8,376.3,336.6,2678.4,3555.6,228.9,73.8,9.7
0.065710,291.9,82.2,2688.0,208.6,3542.4,406.1,335.8,2672.7,3547.9,229.6,74.4,11.9
0.067710,286.5,69.9,2661.0,168.2,3606.2,430.5,333.9,2667.4,3545.2,230.3,74.7,13.7
0.069710,284.5,61.8,2637.0,131.2,3664.5,438.3,331,2662.6,3547,230.9,74.9,14.8
0.071710,285.1,59.0,2624.4,111.0,3687.4,438.7,327.3,2658.4,3553.2,231.5,74.9,15.7
0.073710,287.7,60.9,2621.9,105.6,3679.1,443.9,322.8,2654.7,3563.1,232,74.8,16.5
0.075710,291.7,66.0,2627.2,111.1,3662.5,456.7,317.9,2651.7,3576.3,232.4,74.6,17.2
0.077710,296.6,73.3,2638.3,125.4,3651.9,477.0,312.7,2649.5,3592.1,232.9,74.4,17.9
0.079710,301.5,80.6,2653.4,147.6,3649.5,499.5,307.3,2648,3610,233.2,74.1,18.6
0.081710,305.1,85.8,2669.5,174.5,3650.3,513.5,302,2647.2,3629.1,233.6,73.9,19.2
0.083710,306.7,87.8,2683.2,202.5,3652.0,510.8,296.9,2647.3,3649,233.8,73.8,19.7
0.085710,306.0,86.5,2689.1,222.9,3658.6,496.1,292.1,2648.1,3669,234.1,73.8,20.3
0.087710,303.4,83.0,2686.6,233.2,3674.6,481.8,287.9,2649.7,3688.6,234.3,74,20.9
0.089710,299.8,78.6,2679.4,236.4,3696.1,479.6,284.2,2652.1,3707.1,234.5,74.2,21.5
0.091710,296.3,74.7,2672.3,239.9,3717.1,493.4,281.3,2655.1,3724.3,234.6,74.4,22.1
0.093710,293.3,71.4,2665.9,246.4,3738.8,515.0,279.1,2658.8,3739.6,234.8,74.6,22.6
0.095710,291.1,68.4,2659.5,250.4,3760.5,524.4,277.7,2663.1,3752.9,234.9,74.8,23.3
0.097710,289.9,65.5,2654.2,249.6,3780.1,515.3,277,2667.9,3764,235,74.9,23.9
0.099710,289.4,63.4,2653.7,247.9,3791.0,495.7,277,2673.1,3772.9,235,75,24.6
0.101710,289.5,62.5,2657.9,247.4,3790.8,475.0,277.7,2678.7,3779.4,235.1,75,25.4
0.103710,290.0,62.1,2662.8,243.1,3779.9,456.8,279,2684.4,3783.7,235.1,75,26.2
0.105710,290.4,61.6,2665.9,231.8,3761.6,447.6,280.7,2690.3,3786,235.2,75,26.9
0.107710,290.7,60.5,2669.2,216.5,3738.9,452.1,282.7,2696.2,3786.4,235.3,74.9,27.5
0.109710,290.3,58.9,2675.5,204.2,3716.0,474.7,285,2702,3785.3,235.3,74.9,28
0.111710,289.5,57.3,2685.8,197.9,3696.6,512.6,287.3,2707.6,3782.9,235.4,75,28.4
0.113710,288.4,56.1,2699.9,195.4,3684.4,559.7,289.6,2712.9,3779.5,235.4,75,28.7
0.115710,287.1,55.5,2713.7,195.1,3685.5,598.0,291.7,2717.9,3775.5,235.5,75.1,29
0.117710,285.7,55.1,2724.8,197.4,3699.7,619.2,293.6,2722.5,3771.1,235.6,75.2,29.3
0.119710,284.3,54.8,2732.0,203.2,3721.9,631.6,295.1,2726.5,3766.5,235.7,75.2,29.7
0.121710,283.3,54.7,2737.0,210.3,3748.9,656.4,296.1,2729.9,3762.1,235.8,75.3,30.1
0.123710,282.9,55.0,2742.0,216.7,3781.2,705.2,296.7,2732.8,3758,235.9,75.3,30.4
0.125710,283.1,55.9,2746.7,223.9,3809.6,757.2,296.8,2735,3754.2,236,75.3,30.7
0.127710,283.8,57.2,2749.2,235.5,3822.7,772.9,296.4,2736.6,3750.9,236.2,75.3,30.7
0.129710,284.8,58.4,2747.9,245.9,3816.7,729.8,295.5,2737.6,3748.1,236.3,75.3,30.5
0.131710,285.9,59.9,2746.2,246.6,3809.2,669.8,294.2,2737.9,3745.6,236.5,75.3,30.1
0.133710,287.0,61.8,2747.8,241.7,3811.8,632.4,292.6,2737.6,3743.4,236.7,75.3,29.6
0.135710,288.0,64.2,2752.1,240.7,3823.9,633.5,290.8,2736.7,3741.3,236.9,75.3,29.1
0.137710,288.5,67.1,2756.5,246.2,3837.6,669.7,288.9,2735.3,3739,237.2,75.4,28.8
0.139710,288.5,69.4,2756.5,255.4,3834.1,715.9,287,2733.5,3736.4,237.4,75.4,28.8
0.141710,288.0,70.1,2748.4,265.0,3798.8,718.6,285.2,2731.2,3733.1,237.7,75.5,29
0.143710,287.3,68.9,2732.4,268.7,3745.8,651.7,283.7,2728.5,3728.8,238,75.6,29.2
0.145710,286.8,67.3,2718.2,259.7,3708.8,566.2,282.6,2725.6,3723.5,238.3,75.7,29.3
0.147710,286.9,66.5,2711.8,241.1,3689.8,504.2,282.1,2722.5,3716.6,238.6,75.8,29.2
0.149710,287.8,66.8,2712.1,222.0,3678.7,476.9,282.1,2719.2,3708.2,238.9,75.8,28.7
0.151710,289.7,67.7,2715.0,208.6,3662.3,471.9,282.9,2715.9,3698,239.3,75.9,27.9
0.153710,292.3,68.9,2717.4,202.5,3629.6,466.5,284.4,2712.5,3685.9,239.6,75.8,27
0.155710,295.5,69.6,2715.7,201.7,3589.4,441.3,286.7,2709.2,3671.9,240,75.8,26.3
0.157710,298.9,69.8,2708.6,199.5,3560.3,401.9,289.8,2706,3656,240.4,75.7,25.7
0.159710,302.3,69.5,2697.4,191.1,3551.0,370.8,293.7,2702.9,3638.4,240.8,75.6,25.6
0.161710,305.6,68.5,2684.9,175.5,3552.0,356.6,298.2,2699.9,3619.1,241.1,75.5,25.7
0.163710,309.0,67.0,2673.6,153.5,3554.1,358.3,303.5,2697.2,3598.6,241.5,75.3,25.8
0.165710,312.3,65.5,2666.6,130.9,3552.9,379.3,309.2,2694.7,3576.9,241.9,75.2,26
0.167710,315.6,64.8,2664.0,110.3,3548.7,428.7,315.3,2692.4,3554.7,242.3,75.1,25.9
0.169710,318.7,65.5,2665.3,94.4,3542.8,510.5,321.7,2690.3,3532.2,242.7,74.9,25.7
0.171710,321.9,67.5,2668.8,83.4,3534.6,601.7,328.2,2688.5,3509.9,243,74.8,25.4
0.173710,325.8,70.5,2673.1,75.8,3520.9,655.8,334.6,2686.9,3488.2,243.4,74.5,25
0.175710,330.4,73.3,2676.8,71.1,3501.3,642.2,340.8,2685.6,3467.8,243.8,74.3,24.6
0.177710,336.1,75.0,2680.4,68.2,3475.2,596.2,346.5,2684.4,3448.9,244.1,74,24
0.179710,342.6,74.9,2684.3,67.2,3443.2,559.3,351.7,2683.5,3432.1,244.5,73.7,23.3
0.181710,349.4,73.7,2689.4,67.8,3413.3,547.4,356.1,2682.8,3417.8,244.8,73.3,22.3
0.183710,356.7,72.8,2696.7,69.0,3393.1,565.6,359.7,2682.2,3406.2,245.1,72.9,21.3
0.185710,363.7,72.9,2705.2,69.3,3393.9,612.8,362.4,2681.8,3397.8,245.4,72.5,20.4
0.187710,370.6,74.1,2712.7,69.4,3423.3,673.0,364,2681.6,3392.6,245.7,72.2,19.7
0.189710,376.9,75.8,2716.3,74.2,3467.8,707.3,364.5,2681.5,3390.9,245.9,71.9,19.5
