time,f1,b1,f2,b2,f3,b3,f1p,f2p,f3p,f0,intensity,harmonicity
0.025760,279.1,184.0,2055.0,76.2,3142.2,112.2,290,2048,3129,194.3,68.4,29.2
0.027760,280.3,186.4,2056.4,74.8,3147.4,103.1,290.3,2046.9,3128.6,194.4,68.7,29.5
0.029760,284.4,191.9,2057.1,75.3,3141.3,99.6,290.8,2045.1,3127.9,194.5,69,29.6
0.031760,288.9,194.5,2054.9,78.3,3127.8,94.5,291.5,2042.6,3127,194.6,69.3,29.5
0.033760,292.0,193.0,2048.2,82.2,3115.8,84.2,292.3,2039.5,3125.8,194.8,69.6,29.4
0.035760,294.3,190.0,2039.4,84.5,3110.6,73.4,293.2,2035.8,3124.6,194.9,69.9,29.3
0.037760,296.7,187.9,2031.7,82.8,3110.7,66.6,294.1,2031.8,3123.2,195.1,70.2,29.3
0.039760,299.6,186.2,2025.2,76.6,3112.2,63.7,294.9,2027.4,3121.8,195.2,70.5,29.1
0.041760,303.6,183.3,2017.1,67.8,3112.5,61.7,295.7,2022.9,3120.4,195.4,70.8,29
0.043760,309.5,177.8,2006.5,59.1,3111.4,57.5,296.3,2018.2,3119.1,195.5,71.1,28.8
0.045760,315.1,170.4,1995.9,53.2,3110.5,52.3,296.7,2013.6,3118,195.7,71.4,28.8
0.047760,316.1,165.3,1988.5,51.2,3110.1,49.0,296.8,2009.2,3117.1,195.9,71.6,28.7
0.049760,311.9,164.6,1985.3,51.8,3110.1,46.8,296.5,2004.9,3116.5,196.1,71.9,28.6
0.051760,304.8,164.5,1985.2,52.7,3112.2,43.0,295.8,2001.1,3116.2,196.3,72.1,28.5
0.053760,297.3,161.5,1986.4,52.7,3117.2,37.1,294.6,1997.7,3116.3,196.5,72.4,28.5
0.055760,290.7,156.3,1987.9,52.3,3123.6,31.1,293,1994.9,3116.8,196.7,72.6,28.8
0.057760,284.7,151.4,1989.7,52.7,3129.4,26.6,290.8,1992.7,3117.7,197,72.9,29.3
0.059760,278.1,147.5,1992.0,55.0,3133.2,24.2,288,1991.2,3119.1,197.2,73.1,30
0.061760,270.8,142.8,1994.6,60.4,3134.3,24.7,284.7,1990.3,3120.8,197.4,73.4,30.8
0.063760,265.4,137.8,1997.0,68.4,3132.7,29.8,280.8,1990.2,3123,197.7,73.6,31.5
0.065760,262.5,134.1,1998.8,75.1,3129.8,39.9,276.3,1990.7,3125.5,197.9,73.9,31.8
0.067760,259.8,130.7,2001.1,76.8,3128.3,52.0,271.4,1992,3128.3,198.2,74.1,31.7
0.069760,254.6,125.1,2005.4,75.4,3131.3,59.0,266,1993.9,3131.4,198.4,74.3,31.3
0.071760,248.0,117.0,2011.1,74.0,3138.5,57.8,260.3,1996.3,3134.7,198.7,74.6,30.7
0.073760,242.5,109.0,2016.6,72.8,3145.8,52.9,254.2,1999.3,3138,198.9,74.8,30.1
0.075760,238.4,101.9,2020.9,70.9,3149.8,49.5,247.9,2002.8,3141.4,199.2,75.1,29.7
0.077760,234.3,93.5,2023.5,67.6,3149.5,50.3,241.4,2006.6,3144.7,199.5,75.3,29.5
0.079760,229.7,83.7,2024.3,62.9,3145.5,55.5,234.9,2010.6,3147.8,199.7,75.6,29.3
0.081760,225.4,74.5,2022.9,57.5,3139.5,63.9,228.5,2014.8,3150.6,200,75.8,29.2
0.083760,221.8,66.3,2020.9,52.5,3134.4,72.5,222.3,2019.1,3153,200.3,76.1,29.2
0.085760,218.7,58.0,2020.0,49.0,3133.4,79.4,216.3,2023.4,3155,200.6,76.4,29.2
0.087760,215.9,49.2,2021.3,47.2,3137.9,85.0,210.8,2027.5,3156.4,200.9,76.6,29.2
0.089760,213.6,40.7,2024.2,47.4,3146.3,88.5,205.8,2031.5,3157.1,201.2,76.9,29.3
0.091760,211.7,33.3,2027.1,49.7,3154.5,88.5,201.4,2035.3,3157.2,201.6,77.1,29.5
0.093760,210.6,27.8,2028.9,54.2,3159.0,86.9,197.8,2038.7,3156.5,201.9,77.4,29.7
0.095760,210.5,24.4,2029.2,59.6,3160.0,90.1,195,2041.9,3154.9,202.3,77.7,29.9
0.097760,211.0,23.0,2029.4,64.7,3159.0,101.7,193.1,2044.7,3152.6,202.7,77.9,30.2
0.099760,211.8,23.0,2031.0,69.6,3157.0,118.7,192.1,2047.2,3149.4,203.1,78.2,30.4
0.101760,212.7,23.7,2034.7,74.8,3154.5,134.0,192.2,2049.5,3145.4,203.5,78.4,30.8
0.103760,213.5,24.8,2040.4,80.3,3151.0,142.8,193.4,2051.5,3140.6,203.9,78.6,31.1
0.105760,214.3,25.9,2047.2,85.3,3145.5,149.9,195.6,2053.3,3135,204.4,78.8,31.5
0.107760,215.0,27.2,2052.8,88.3,3136.8,160.8,198.9,2055,3128.7,204.9,79.1,31.9
0.109760,215.8,29.0,2055.4,86.7,3125.2,172.8,203.4,2056.6,3121.7,205.5,79.3,32.5
0.111760,216.9,31.4,2056.2,81.0,3111.4,172.8,208.9,2058.3,3114.2,206.1,79.5,33.1
0.113760,217.7,32.9,2059.0,75.2,3097.8,147.1,215.4,2060.3,3106.2,206.7,79.7,33.4
0.115760,218.9,35.2,2062.1,68.2,3080.6,130.5,223,2062.4,3097.8,207.4,79.8,33.4
0.117760,221.3,39.6,2065.7,61.4,3061.4,131.2,231.5,2065,3089.1,208.1,80,32.9
0.119760,224.3,44.3,2072.2,57.1,3053.9,140.3,240.8,2068.1,3080.3,208.8,80.2,32.1
0.121760,227.9,49.1,2079.0,51.7,3061.0,154.9,250.9,2071.8,3071.3,209.6,80.3,31.1
0.123760,232.6,54.6,2082.6,43.3,3073.4,168.3,261.6,2076.1,3062.3,210.4,80.4,29.9
0.125760,237.9,60.1,2084.6,35.7,3082.7,177.2,273,2081.2,3053.5,211.3,80.5,28.8
0.127760,242.7,64.8,2088.3,32.0,3086.4,186.6,284.8,2087.1,3044.8,212.2,80.6,27.6
0.129760,248.1,70.7,2095.0,32.0,3084.3,207.0,296.9,2093.8,3036.4,213.2,80.6,26.4
0.131760,258.2,81.6,2105.0,34.2,3072.6,246.8,309.3,2101.4,3028.2,214.2,80.7,25
0.133760,279.7,99.2,2117.3,37.6,3043.1,303.7,321.9,2109.8,3020.5,215.2,80.7,23.6
0.135760,316.1,110.6,2130.8,41.4,2997.2,356.1,334.5,2119,3013.1,216.3,80.7,22.1
0.137760,355.4,101.5,2145.3,43.9,2963.6,378.5,347,2128.9,3006.1,217.4,80.7,20.3
0.139760,386.1,84.0,2160.7,43.2,2959.2,379.1,359.3,2139.4,2999.4,218.6,80.6,18.3
0.141760,408.0,68.4,2174.5,40.3,2969.2,374.8,371.4,2150.4,2993.2,219.7,80.6,16.4
0.143760,423.5,56.7,2184.8,38.2,2976.6,376.9,383.1,2161.8,2987.2,220.9,80.5,14.5
0.145760,434.8,47.5,2191.5,38.8,2976.5,391.1,394.5,2173.4,2981.5,222.1,80.5,13
0.147760,443.1,39.6,2195.2,42.7,2969.6,414.1,405.3,2185.1,2976,223.4,80.4,11.9
0.149760,449.2,32.0,2196.9,50.6,2956.3,434.4,415.6,2196.5,2970.7,224.6,80.4,11
0.151760,453.8,25.2,2199.3,62.7,2938.7,438.6,425.4,2207.6,2965.3,225.9,80.4,10.3
0.153760,457.2,19.5,2206.2,75.5,2925.5,423.8,434.6,2218.1,2959.9,227.2,80.4,9.9
0.155760,460.0,15.1,2216.3,82.4,2926.2,391.4,443.1,2227.9,2954.4,228.4,80.5,9.6
0.157760,462.1,12.5,2223.2,84.1,2940.1,339.1,451,2236.6,2948.5,229.7,80.7,9.5
0.159760,463.7,11.6,2225.5,85.8,2956.7,277.3,458.3,2244.1,2942.3,231,80.8,9.7
0.161760,464.9,12.4,2224.8,88.2,2968.5,226.7,464.9,2250.3,2935.7,232.3,81,10
0.163760,466.1,14.4,2223.0,90.5,2974.7,200.9,471,2254.9,2928.5,233.5,81.1,10.5
0.165760,467.5,16.8,2221.6,93.1,2975.6,199.5,476.5,2257.9,2920.7,234.8,81.2,10.9
0.167760,469.3,19.2,2221.3,98.2,2968.6,215.6,481.4,2259,2912.2,236,81.2,11.3
0.169760,471.3,20.9,2222.9,107.5,2950.0,236.6,485.7,2258.3,2903,237.2,81.2,11.8
0.171760,473.6,21.9,2227.5,120.1,2918.8,245.4,489.6,2255.7,2893.1,238.4,81.1,12.3
0.173760,476.5,21.8,2234.6,131.0,2880.1,239.0,493.1,2251.2,2882.4,239.6,81,12.8
0.175760,480.1,20.3,2240.6,132.1,2845.5,226.4,496.1,2244.7,2871,240.8,80.8,13.2
0.177760,484.0,17.5,2241.7,120.8,2823.8,216.1,498.7,2236.5,2858.9,241.9,80.6,13.4
0.179760,487.8,14.3,2237.2,105.3,2812.5,212.9,501.1,2226.5,2846.2,243,80.4,13.6
0.181760,491.1,11.6,2229.9,93.3,2803.1,218.1,503.1,2214.9,2832.9,244.1,80.2,13.7
0.183760,494.1,9.9,2222.7,87.7,2789.2,233.3,504.8,2201.9,2819.2,245.2,80.1,13.9
0.185760,496.8,9.7,2216.3,87.4,2767.7,251.9,506.4,2187.7,2805.1,246.2,80.1,14.1
0.187760,499.4,10.8,2209.3,91.3,2746.0,258.6,507.7,2172.6,2790.9,247.2,80.1,14.5
0.189760,502.4,12.1,2200.4,100.8,2739.3,250.0,508.9,2156.7,2776.6,248.1,80.2,14.9
0.191760,505.6,12.8,2189.2,119.1,2748.6,238.4,509.9,2140.4,2762.4,249,80.1,15.4
0.193760,508.8,12.9,2177.4,146.9,2761.9,236.4,510.8,2123.9,2748.5,249.9,80,15.8
0.195760,511.9,13.1,2167.9,177.4,2770.4,252.3,511.5,2107.6,2735,250.8,79.8,16
0.197760,514.9,13.4,2155.9,201.9,2768.6,281.4,512.2,2091.7,2722.2,251.6,79.4,16.1
0.199760,517.7,13.7,2129.0,222.1,2755.4,299.7,512.8,2076.6,2710.2,252.3,78.9,16.2
0.201760,520.1,14.0,2079.8,236.9,2740.3,287.4,513.3,2062.5,2699.1,253,78.2,16.1
0.203760,522.2,14.4,2017.3,234.0,2733.6,259.8,513.8,2049.7,2689.2,253.7,77.3,15.8
0.205760,524.0,15.5,1965.5,216.5,2728.2,245.6,514.1,2038.4,2680.5,254.3,76.1,15.1
0.207760,525.2,18.1,1941.8,209.2,2703.6,256.4,514.4,2028.9,2673.3,254.9,74.8,17.1
0.209760,525.3,23.8,1944.9,230.3,2654.4,275.5,514.6,2021.2,2667.5,255.5,73.2,22
0.211760,523.8,34.1,1964.9,278.5,2613.8,287.4,514.8,2015.7,2663.3,256,71.4,25.1
0.213760,519.5,51.9,2000.8,349.8,2605.6,315.2,514.9,2012.3,2660.8,256.4,69.4,21.7
0.215760,509.3,79.8,2052.9,440.4,2616.1,377.6,514.9,2011.2,2659.9,256.9,67.2,7.2
