time,f1,b1,f2,b2,f3,b3,f1p,f2p,f3p,f0,intensity,harmonicity
0.025497,419.2,41.3,2286.8,170.5,3063.4,278.9,423.3,2309.1,3093.9,217.7,78,-13
0.027497,427.3,33.2,2288.3,153.5,3063.0,210.7,423.8,2310.1,3094.7,217.6,79.7,16.2
0.029497,431.9,28.6,2297.6,147.2,3067.3,178.1,424.7,2311.8,3096,217.5,81.2,22.9
0.031497,434.7,25.6,2309.7,146.6,3070.4,161.5,425.9,2314.1,3097.8,217.4,82.5,20.5
0.033497,437.0,23.0,2322.2,147.7,3072.8,151.1,427.5,2317.1,3100,217.2,83.6,14
0.035497,439.1,20.8,2333.1,147.6,3076.6,143.2,429.4,2320.6,3102.7,217,84.5,8.7
0.037497,440.6,19.0,2341.1,144.9,3083.7,138.1,431.6,2324.7,3105.7,216.8,85.3,8.7
0.039497,441.9,17.6,2347.7,138.7,3096.0,137.2,434.1,2329.3,3109.1,216.6,86.1,10.3
0.041497,443.0,16.3,2354.0,129.5,3113.5,141.7,437,2334.3,3112.7,216.4,86.7,12.3
0.043497,443.8,15.2,2360.1,117.4,3135.0,149.8,440.2,2339.6,3116.5,216.1,87.2,14.2
0.045497,444.5,14.3,2365.2,104.0,3155.9,156.1,443.6,2345.3,3120.5,215.8,87.7,15.6
0.047497,444.9,14.0,2368.4,92.0,3170.2,157.3,447.3,2351.3,3124.6,215.5,88,16.2
0.049497,445.2,14.5,2369.8,81.8,3177.5,157.4,451.3,2357.4,3128.8,215.1,88.2,15.9
0.051497,445.4,15.9,2369.5,74.4,3181.0,162.4,455.5,2363.6,3132.8,214.8,88.3,15.1
0.053497,445.5,18.4,2368.2,69.9,3184.0,173.8,459.9,2369.9,3136.9,214.4,88.3,14.2
0.055497,445.8,22.4,2366.5,68.4,3187.3,187.5,464.5,2376.2,3140.8,214,88.1,13.4
0.057497,446.6,27.9,2364.8,69.8,3189.4,196.7,469.3,2382.4,3144.5,213.6,87.7,13
0.059497,448.2,36.0,2363.4,74.3,3188.9,197.8,474.2,2388.5,3148,213.1,87.2,12.9
0.061497,451.4,47.0,2362.8,82.8,3184.6,189.2,479.2,2394.5,3151.2,212.7,86.6,12.9
0.063497,456.8,61.2,2363.8,97.4,3175.3,173.5,484.2,2400.2,3154.2,212.2,85.9,12.8
0.065497,465.3,78.4,2367.7,120.3,3161.5,156.7,489.4,2405.7,3156.9,211.8,85.1,12.6
0.067497,477.0,96.3,2376.6,150.1,3146.7,144.4,494.5,2410.9,3159.3,211.3,84.3,12.1
0.069497,493.6,113.5,2393.4,183.0,3132.9,136.3,499.7,2415.8,3161.4,210.8,83.5,11.3
0.071497,515.5,125.7,2416.7,207.1,3122.9,129.8,504.8,2420.4,3163.3,210.4,82.6,10.2
0.073497,541.0,132.3,2440.2,212.9,3118.4,122.0,509.8,2424.6,3164.8,209.9,82,9.2
0.075497,564.1,135.1,2457.1,200.9,3119.2,114.1,514.7,2428.5,3166.1,209.4,81.5,8.6
0.077497,575.4,134.6,2465.7,181.7,3122.7,110.3,519.6,2432.1,3167.1,209,81.3,8.4
0.079497,573.2,130.1,2470.5,163.7,3127.0,113.4,524.2,2435.3,3167.9,208.5,81.3,8.7
0.081497,562.7,122.6,2473.8,150.8,3131.8,125.1,528.7,2438.2,3168.6,208.1,81.5,9.2
0.083497,551.1,114.9,2474.5,141.8,3137.7,146.2,533.1,2440.8,3169.1,207.6,81.7,9.9
0.085497,541.6,109.3,2471.0,134.5,3145.6,175.5,537.2,2443.1,3169.4,207.2,82,10.6
0.087497,535.2,106.0,2464.4,128.5,3154.4,206.2,541.1,2445.1,3169.7,206.8,82.2,11.4
0.089497,531.4,104.5,2456.5,125.0,3162.4,231.2,544.7,2446.9,3170,206.4,82.2,12.3
0.091497,530.4,105.1,2448.7,125.1,3167.5,242.6,548.2,2448.4,3170.2,206.1,82.2,13.4
0.093497,532.0,107.9,2441.4,126.6,3171.7,244.5,551.4,2449.8,3170.4,205.7,82,14.4
0.095497,535.9,112.9,2435.0,127.1,3178.3,246.2,554.4,2451,3170.7,205.4,81.8,15.2
0.097497,541.7,119.5,2431.1,127.0,3188.0,250.7,557.2,2452.1,3171,205,81.5,15.6
0.099497,548.6,127.1,2430.6,130.1,3199.0,254.0,559.7,2453,3171.4,204.7,81.2,15.8
0.101497,554.6,133.8,2433.6,140.1,3206.1,249.5,562.1,2453.8,3171.8,204.4,81,15.7
0.103497,557.8,137.7,2437.9,158.5,3206.2,236.8,564.2,2454.5,3172.3,204.1,80.9,15.5
0.105497,558.4,137.4,2441.2,183.1,3200.2,220.4,566.2,2455.2,3172.9,203.8,80.9,15.4
0.107497,557.9,133.3,2442.7,208.4,3192.3,206.7,568,2455.7,3173.4,203.6,81,15.4
0.109497,558.3,127.2,2442.7,230.9,3185.3,198.3,569.7,2456.2,3174,203.3,81.1,15.5
0.111497,560.7,121.0,2442.1,245.2,3181.1,195.0,571.2,2456.5,3174.6,203.1,81.2,15.6
0.113497,565.1,115.6,2443.1,249.1,3179.9,192.5,572.7,2456.8,3175.2,202.8,81.2,15.7
0.115497,570.7,111.2,2448.3,244.1,3180.6,188.3,574.1,2456.9,3175.7,202.6,81.3,15.9
0.117497,576.3,107.7,2456.0,233.9,3181.3,185.4,575.4,2456.9,3176,202.3,81.3,16
0.119497,581.5,104.2,2464.0,219.8,3181.4,188.1,576.6,2456.8,3176.2,202.1,81.2,16.3
0.121497,585.7,99.8,2470.1,203.8,3181.4,197.9,577.9,2456.4,3176.2,201.9,81.2,16.6
0.123497,588.8,94.6,2473.6,187.0,3181.5,212.3,579.1,2455.7,3176,201.7,81.1,16.8
0.125497,591.1,89.7,2474.7,171.3,3181.0,226.7,580.3,2454.8,3175.4,201.5,81.1,17
0.127497,592.5,85.8,2473.9,159.3,3178.6,237.3,581.5,2453.6,3174.5,201.2,81.1,17.2
0.129497,593.2,82.7,2471.4,150.7,3173.9,243.6,582.7,2452,3173.3,201,81.1,17.3
0.131497,593.0,80.1,2466.7,143.4,3167.9,246.0,583.9,2450,3171.6,200.8,81.2,17.3
0.133497,592.1,77.7,2459.5,134.5,3161.8,247.6,585.1,2447.6,3169.5,200.6,81.3,17.3
0.135497,590.7,75.5,2450.3,123.7,3156.1,251.7,586.3,2444.7,3166.9,200.4,81.4,17.4
0.137497,589.5,73.9,2441.0,114.2,3150.9,258.7,587.5,2441.2,3163.8,200.2,81.5,17.6
0.139497,588.7,72.9,2431.8,107.0,3146.3,266.2,588.7,2437.2,3160.2,200,81.5,18
0.141497,588.7,72.2,2423.4,101.9,3141.9,268.6,589.8,2432.6,3156.1,199.7,81.6,18.5
0.143497,589.5,71.1,2416.2,97.5,3136.9,262.4,590.8,2427.4,3151.4,199.5,81.7,19
0.145497,590.8,69.7,2410.8,93.4,3131.4,250.5,591.8,2421.6,3146.3,199.3,81.7,19.2
0.147497,592.4,68.9,2406.9,89.9,3126.4,241.8,592.7,2415.1,3140.6,199.1,81.7,19.2
0.149497,593.7,69.1,2403.6,87.3,3121.9,242.5,593.4,2407.9,3134.5,198.8,81.7,18.8
0.151497,594.2,70.1,2399.3,86.1,3118.5,253.1,594,2400.1,3127.9,198.6,81.7,18.3
0.153497,593.6,70.9,2392.5,86.2,3116.0,267.5,594.5,2391.7,3120.8,198.4,81.7,17.8
0.155497,592.0,71.3,2382.8,88.0,3113.0,278.5,594.8,2382.6,3113.4,198.1,81.7,17.3
0.157497,590.0,71.6,2371.8,92.2,3106.8,284.4,594.9,2372.9,3105.7,197.9,81.8,17.2
0.159497,588.2,72.5,2359.7,99.2,3095.8,288.4,594.8,2362.7,3097.7,197.6,81.8,17.4
0.161497,587.2,73.6,2346.5,107.2,3082.4,290.6,594.5,2352,3089.4,197.4,81.8,17.7
0.163497,587.0,74.3,2332.1,113.0,3070.3,289.2,594,2340.8,3081,197.1,81.8,18
0.165497,587.5,74.1,2318.1,114.3,3061.8,284.1,593.3,2329.2,3072.4,196.9,81.7,18.2
0.167497,588.5,73.4,2306.9,112.8,3056.6,276.5,592.3,2317.3,3063.8,196.6,81.7,18.2
0.169497,589.6,72.6,2298.1,111.5,3053.4,264.8,591.2,2305.1,3055.2,196.3,81.6,18
0.171497,590.5,71.4,2290.4,112.3,3052.5,249.1,589.9,2292.8,3046.6,196.1,81.6,17.7
0.173497,590.8,69.0,2281.6,115.3,3053.7,230.8,588.4,2280.4,3038.2,195.8,81.6,17.4
0.175497,590.0,64.6,2271.1,120.3,3055.0,211.9,586.7,2268,3029.9,195.5,81.6,16.9
0.177497,588.3,58.6,2260.9,126.8,3053.5,194.1,584.9,2255.7,3021.8,195.3,81.6,16.4
0.179497,586.0,51.0,2253.1,133.2,3046.9,177.0,583,2243.6,3014,195,81.6,15.7
0.181497,583.4,43.0,2249.8,135.6,3036.5,162.7,581,2231.8,3006.6,194.7,81.7,14.8
0.183497,580.8,35.4,2247.6,131.9,3026.6,152.7,578.9,2220.4,2999.5,194.5,81.8,14
0.185497,578.4,28.8,2240.1,124.5,3018.3,147.9,576.9,2209.5,2992.8,194.2,81.9,13.6
0.187497,576.4,23.9,2223.6,119.0,3009.6,149.9,574.9,2199.2,2986.6,193.9,82.1,13.6
0.189497,574.9,20.2,2197.9,117.6,2997.8,159.3,572.9,2189.6,2980.9,193.7,82.2,14.1
0.191497,573.6,17.4,2169.5,118.0,2983.1,170.6,571.1,2180.7,2975.7,193.4,82.3,15
0.193497,572.3,15.1,2146.5,117.6,2967.0,176.3,569.3,2172.7,2971.1,193.2,82.3,16
0.195497,570.5,13.4,2132.5,119.3,2951.0,178.8,567.7,2165.6,2967,193,82.3,16.7
0.197497,568.3,12.3,2125.8,127.2,2935.9,185.0,566.3,2159.4,2963.5,192.8,82.1,17
0.199497,565.9,11.7,2125.7,147.0,2923.8,198.2,565.2,2154.3,2960.6,192.6,81.9,17
0.201497,563.8,11.7,2135.4,181.7,2923.5,214.2,564.2,2150.3,2958.4,192.4,81.5,16.9
0.203497,561.9,12.2,2154.3,229.3,2935.2,225.8,563.6,2147.4,2956.8,192.2,81,16.6
0.205497,559.5,13.1,2171.8,281.1,2947.9,236.2,563.1,2145.7,2955.8,192,80.4,16.3
0.207497,556.1,14.6,2176.9,318.6,2957.5,254.6,563,2145.1,2955.5,191.9,79.7,16
