time,f1,b1,f2,b2,f3,b3,f1p,f2p,f3p,f0,intensity,harmonicity
0.025639,332.2,36.1,2716.4,142.5,3283.4,96.3,344.5,2748.9,3320.4,184.6,68.1,21.2
0.027639,336.2,33.3,2717.5,111.2,3296.9,101.7,345.1,2750.3,3322.1,184.9,68.6,23.5
0.029639,340.0,32.7,2723.1,93.1,3310.8,105.7,346,2752.5,3324.9,185.3,69.1,19.3
0.031639,344.3,34.5,2734.0,83.4,3321.5,101.7,347.3,2755.6,3328.7,185.7,69.5,13.5
0.033639,349.3,37.6,2748.8,81.6,3329.5,93.0,348.9,2759.5,3333.5,186.2,69.8,10.9
0.035639,354.3,40.3,2765.7,89.7,3338.7,88.3,350.9,2764,3339.1,186.7,70.1,11.7
0.037639,357.8,41.4,2784.7,110.3,3349.9,90.7,353.1,2769.3,3345.5,187.2,70.4,12.6
0.039639,359.9,41.9,2804.4,136.9,3360.3,96.6,355.5,2775,3352.5,187.8,70.7,13.5
0.041639,361.7,42.7,2820.6,153.1,3370.0,101.2,358.2,2781.2,3359.9,188.4,71,14.2
0.043639,363.7,43.5,2826.0,147.7,3380.4,102.2,361,2787.8,3367.7,189,71.2,14.7
0.045639,366.2,43.8,2824.3,134.4,3392.6,100.6,364,2794.5,3375.6,189.7,71.4,14.8
0.047639,368.9,43.6,2821.5,125.9,3404.5,95.1,367,2801.3,3383.5,190.4,71.6,14.7
0.049639,371.7,43.2,2819.6,124.9,3412.2,87.6,370.1,2808.1,3391.2,191.2,71.8,14.5
0.051639,374.8,42.9,2818.5,129.9,3415.9,81.9,373.2,2814.6,3398.5,192,72,14.2
0.053639,378.4,43.2,2818.9,139.4,3416.9,81.3,376.3,2820.9,3405.3,192.8,72.2,13.9
0.055639,382.6,44.4,2822.2,151.5,3416.5,88.0,379.3,2826.6,3411.4,193.7,72.3,13.7
0.057639,386.8,46.0,2828.4,161.9,3416.3,104.2,382.2,2831.7,3416.7,194.6,72.5,13.5
0.059639,390.1,47.1,2834.4,165.5,3418.5,126.8,385.1,2836.1,3421.1,195.6,72.6,13.2
0.061639,392.8,47.5,2838.2,162.4,3424.2,149.6,387.8,2839.6,3424.3,196.6,72.7,13
0.063639,395.1,47.3,2839.1,157.7,3431.6,166.3,390.3,2842.1,3426.4,197.7,72.8,12.7
0.065639,397.2,46.7,2838.1,157.4,3436.2,178.9,392.7,2843.4,3427.3,198.8,73,12.4
0.067639,398.8,46.0,2837.1,166.6,3434.8,191.5,394.9,2843.5,3426.8,199.9,73.1,12.1
0.069639,399.7,45.4,2836.4,185.9,3427.2,205.0,397,2842.3,3425,201,73.3,11.8
0.071639,399.7,45.0,2833.5,208.6,3415.0,216.9,399,2839.7,3421.8,202.2,73.5,11.4
0.073639,399.2,44.7,2825.6,213.3,3402.9,218.8,400.8,2835.6,3417.3,203.5,73.7,10.9
0.075639,398.4,44.6,2815.4,193.8,3393.9,207.8,402.5,2829.9,3411.4,204.7,73.9,10.4
0.077639,397.3,44.7,2807.0,169.7,3388.0,191.5,404.1,2822.7,3404.3,206,74.2,9.7
0.079639,396.4,44.5,2800.0,156.0,3383.6,180.1,405.6,2813.9,3395.9,207.3,74.5,9
0.081639,396.4,44.0,2791.7,152.2,3377.9,175.6,407.1,2803.4,3386.4,208.7,74.9,8.4
0.083639,398.0,43.6,2781.5,155.3,3369.4,174.1,408.7,2791.4,3375.8,210,75.2,8
0.085639,400.9,43.2,2768.9,159.6,3359.1,168.1,410.2,2777.8,3364.3,211.4,75.7,8
0.087639,404.5,42.7,2754.5,159.4,3350.6,155.8,411.8,2762.6,3351.9,212.8,76.1,8.1
0.089639,407.9,42.2,2741.9,153.8,3345.0,144.6,413.6,2746,3338.9,214.2,76.6,8.4
0.091639,411.6,42.0,2732.4,148.0,3338.6,141.3,415.4,2728,3325.3,215.6,77,8.7
0.093639,415.3,42.0,2723.3,147.8,3326.4,147.1,417.5,2708.6,3311.3,217.1,77.5,8.9
0.095639,419.2,41.6,2707.6,154.0,3305.6,154.9,419.7,2688.1,3297.1,218.5,78,8.9
0.097639,423.4,40.0,2681.0,160.2,3279.3,155.2,422.2,2666.5,3282.7,219.9,78.6,8.8
0.099639,427.9,37.1,2649.5,157.0,3255.9,147.8,424.9,2643.9,3268.3,221.4,79.2,8.7
0.101639,433.1,33.1,2620.9,143.0,3237.3,140.0,427.8,2620.5,3254.1,222.8,79.9,8.6
0.103639,438.3,28.9,2602.4,127.4,3223.5,137.9,431.1,2596.4,3240.1,224.3,80.6,8.7
0.105639,443.2,25.2,2590.6,118.3,3212.2,141.4,434.6,2571.7,3226.4,225.7,81.4,8.9
0.107639,447.8,22.2,2576.7,117.3,3201.8,146.3,438.3,2546.7,3213.3,227.2,82.1,9.1
0.109639,452.0,19.8,2552.5,119.6,3191.6,146.9,442.4,2521.4,3200.7,228.7,82.8,9.4
0.111639,456.0,17.6,2514.5,117.8,3182.5,141.3,446.6,2496.1,3188.7,230.1,83.5,9.7
0.113639,459.6,15.6,2473.6,109.9,3176.9,134.7,451.2,2470.8,3177.5,231.6,84.2,10.1
0.115639,462.9,14.4,2438.0,101.7,3173.2,132.1,455.9,2445.8,3166.9,233.1,84.8,10.4
0.117639,466.0,13.8,2406.2,95.4,3169.6,132.0,460.8,2421.1,3157.2,234.6,85.3,10.9
0.119639,469.1,13.7,2377.6,87.8,3167.1,131.1,465.8,2397,3148.2,236,85.6,11.3
0.121639,472.5,13.7,2353.3,77.9,3165.3,130.0,470.9,2373.6,3139.9,237.5,85.9,11.6
0.123639,476.1,14.1,2336.7,69.4,3161.3,131.9,476.1,2350.9,3132.5,239,86.1,11.9
0.125639,480.0,15.0,2323.4,65.4,3152.4,137.1,481.2,2329.1,3125.7,240.6,86.1,12
0.127639,484.0,16.8,2307.1,65.3,3140.6,140.6,486.4,2308.3,3119.7,242.1,86.1,12.1
0.129639,487.5,19.3,2284.5,65.8,3130.4,137.2,491.4,2288.6,3114.3,243.6,86,12.1
0.131639,490.9,22.2,2256.2,62.7,3122.1,128.1,496.4,2270,3109.6,245.1,85.8,12
0.133639,493.6,24.8,2231.5,55.5,3115.8,120.8,501.1,2252.6,3105.4,246.6,85.6,12
0.135639,495.8,27.1,2215.8,47.9,3110.8,121.5,505.6,2236.4,3101.6,248.1,85.3,12.1
0.137639,497.6,29.3,2208.6,43.5,3105.4,132.3,509.8,2221.6,3098.3,249.7,84.9,12.3
0.139639,499.3,31.8,2206.5,43.7,3095.9,149.4,513.8,2208,3095.3,251.1,84.5,12.4
0.141639,501.8,35.0,2205.9,49.3,3079.3,164.2,517.4,2195.7,3092.5,252.6,84.1,12.4
0.143639,505.5,39.4,2202.1,60.1,3061.5,165.8,520.6,2184.7,3090,254.1,83.6,12
0.145639,511.4,45.2,2188.3,72.5,3049.7,156.6,523.4,2174.9,3087.6,255.5,83,11.2
0.147639,519.9,50.9,2163.5,77.3,3045.3,145.1,525.7,2166.3,3085.3,256.9,82.6,9.9
0.149639,528.8,52.0,2141.7,71.9,3045.4,139.6,527.7,2158.8,3083,258.2,82.3,8.5
0.151639,535.2,46.3,2132.2,63.7,3045.3,144.2,529.2,2152.5,3080.7,259.5,82.2,7.4
0.153639,537.3,37.1,2135.1,58.5,3042.6,156.9,530.2,2147.1,3078.4,260.7,82.4,6.9
0.155639,537.5,28.9,2144.3,57.3,3042.1,168.8,530.8,2142.7,3075.9,261.9,82.7,7.3
0.157639,538.3,23.6,2155.3,60.0,3051.1,168.5,530.9,2139.1,3073.3,262.9,83.1,8.3
0.159639,540.2,20.8,2165.5,67.4,3066.5,157.6,530.7,2136.3,3070.6,263.9,83.3,9.6
0.161639,542.9,19.7,2174.7,82.3,3081.9,149.2,530,2134.1,3067.7,264.8,83.5,10.8
0.163639,545.3,20.2,2180.4,105.9,3093.5,156.3,528.9,2132.6,3064.6,265.6,83.5,11.6
0.165639,546.9,22.0,2178.5,133.1,3101.6,183.3,527.4,2131.5,3061.5,266.2,83.2,12
0.167639,547.7,25.2,2167.0,152.1,3105.5,227.4,525.7,2130.8,3058.1,266.8,82.8,12.1
0.169639,547.6,29.7,2150.0,159.2,3102.3,275.0,523.6,2130.4,3054.6,267.2,82.1,12.1
0.171639,546.3,37.2,2130.2,161.6,3087.9,308.6,521.3,2130.3,3051.1,267.6,81.2,11.9
0.173639,542.7,49.1,2111.2,164.2,3067.9,310.7,518.7,2130.3,3047.4,267.8,80.2,11.5
0.175639,534.7,68.2,2095.2,168.2,3054.3,294.4,515.9,2130.4,3043.7,267.8,79,14.1
0.177639,518.5,97.0,2083.9,170.9,3049.8,279.4,513,2130.6,3039.9,267.8,77.6,19.6
0.179639,492.6,131.5,2077.8,169.0,3048.0,276.5,510,2130.7,3036.1,267.7,76.3,23.3
0.181639,457.0,160.5,2075.1,171.0,3043.0,304.2,506.9,2130.8,3032.4,267.4,75,20.5
0.183639,425.5,173.2,2075.8,194.7,3032.2,382.1,503.8,2130.8,3028.7,267,73.8,6.6
0.185639,413.5,180.6,2084.0,254.1,3011.5,501.0,500.6,2130.6,3025,266.6,72.6,-25.2
0.187639,430.5,185.0,2112.5,342.4,2983.7,595.3,497.5,2130.3,3021.5,266,71.4,-71.5
0.189639,469.2,168.0,2154.7,371.3,2977.2,567.1,494.5,2129.9,3018.1,265.4,70.3,-122.6
0.191639,503.5,126.5,2169.7,311.3,2995.5,453.0,491.5,2129.3,3014.9,264.6,69.1,-168.7
0.193639,519.3,92.1,2160.4,245.7,3009.7,355.8,488.6,2128.6,3011.8,263.8,68,-200
0.195639,525.2,74.8,2151.8,202.5,3009.3,293.0,485.9,2127.7,3008.9,263,67,-213.2
0.197639,526.3,67.0,2150.6,177.1,2998.6,253.8,483.3,2126.8,3006.3,262.1,66,-214.9
0.199639,523.7,61.5,2153.6,160.9,2986.2,233.3,480.8,2125.7,3003.8,261.2,65.1,-209.9
0.201639,517.0,55.3,2155.9,145.1,2978.7,234.1,478.6,2124.6,3001.5,260.2,64.3,-203.3
0.203639,507.0,48.9,2152.8,127.5,2985.1,269.0,476.5,2123.5,2999.4,259.3,63.5,-200
0.205639,496.2,42.8,2142.3,111.6,3003.5,341.8,474.6,2122.4,2997.6,258.3,62.6,-200
0.207639,488.9,38.1,2126.4,96.8,3003.7,427.6,473,2121.4,2996,257.3,61.8,-200
0.209639,486.4,37.1,2111.6,82.2,2979.7,445.7,471.5,2120.4,2994.6,256.4,61,-200
0.211639,482.9,41.6,2099.2,73.4,2978.1,395.3,470.3,2119.4,2993.4,255.5,60.5,-200
0.213639,472.1,53.4,2090.0,73.0,2990.7,334.3,469.2,2118.7,2992.5,254.6,60.1,-200
0.215639,453.2,69.9,2086.9,77.5,2998.1,280.4,468.5,2118,2991.7,253.7,59.8,-200
0.217639,435.4,80.0,2095.7,81.3,3004.6,243.0,467.9,2117.6,2991.2,252.9,59.8,-200
0.219639,429.1,76.1,2116.1,79.1,3016.2,224.0,467.6,2117.3,2990.9,252.1,59.8,-200
0.221639,432.7,63.6,2137.9,71.2,3025.9,216.1,467.4,2117.2,2990.8,251.4,59.8,-200
