time,f1,b1,f2,b2,f3,b3,f1p,f2p,f3p,f0,intensity,harmonicity
0.025469,341.7,519.6,2141.1,206.8,2910.6,378.5,401.9,2417,3077.9,208.6,75.1,5.5
0.027469,376.4,355.9,2213.8,256.3,2916.8,364.1,402.1,2417.7,3080,209,76,6
0.029469,388.1,249.1,2274.6,279.9,2921.9,411.6,402.5,2418.7,3083.3,209.4,76.9,6.5
0.031469,393.0,186.6,2315.1,289.8,2923.3,501.5,403,2420.2,3088,209.9,77.8,7.3
0.033469,396.8,146.0,2360.0,295.0,2931.4,632.3,403.6,2422.1,3093.9,210.4,78.6,8.2
0.035469,399.7,114.4,2410.2,286.4,2949.3,768.4,404.4,2424.5,3101.1,210.9,79.3,9.4
0.037469,402.0,86.2,2455.1,264.9,2976.5,850.3,405.3,2427.2,3109.4,211.4,80.1,10.9
0.039469,404.2,63.3,2485.9,241.9,3012.2,845.0,406.3,2430.3,3119,212,80.8,12.5
0.041469,406.6,48.2,2503.6,223.3,3064.8,808.2,407.5,2433.7,3129.5,212.6,81.4,14
0.043469,409.5,40.1,2516.6,209.0,3161.2,791.9,408.7,2437.5,3141.1,213.2,82.1,15.3
0.045469,412.3,35.7,2529.1,200.9,3292.1,694.5,410.1,2441.6,3153.7,213.8,82.7,16.2
0.047469,415.0,32.2,2544.0,198.6,3350.9,483.4,411.6,2446,3167.1,214.5,83.3,17.1
0.049469,417.7,28.7,2558.4,202.8,3337.7,344.0,413.2,2450.8,3181.2,215.2,83.9,17.7
0.051469,420.5,25.5,2568.2,209.9,3312.2,274.2,414.9,2455.7,3196.1,215.9,84.5,18.3
0.053469,423.2,23.1,2574.0,216.8,3302.4,250.3,416.7,2460.9,3211.5,216.6,84.9,18.7
0.055469,425.6,21.3,2574.1,224.1,3311.0,257.5,418.6,2466.4,3227.4,217.3,85.3,19
0.057469,427.8,19.3,2563.6,232.5,3328.1,280.9,420.6,2472,3243.7,218,85.6,19.1
0.059469,429.9,17.1,2542.6,237.8,3346.6,307.2,422.6,2477.7,3260.3,218.8,85.8,19.2
0.061469,432.2,15.6,2523.7,232.5,3367.1,313.2,424.7,2483.6,3277.1,219.5,85.9,19.1
0.063469,435.2,15.3,2516.8,220.1,3386.8,291.4,426.8,2489.6,3293.9,220.3,85.9,19
0.065469,438.6,15.6,2518.1,208.7,3397.3,264.9,429,2495.7,3310.7,221,85.8,18.7
0.067469,442.3,16.0,2520.9,195.4,3404.0,244.5,431.3,2501.8,3327.4,221.7,85.7,18.3
0.069469,445.8,16.1,2523.1,176.5,3414.0,231.2,433.6,2507.9,3343.9,222.5,85.5,17.9
0.071469,448.9,15.9,2526.3,153.2,3427.9,224.4,435.9,2514,3360,223.2,85.4,17.5
0.073469,451.6,15.4,2531.1,129.0,3441.0,222.0,438.2,2520,3375.7,224,85.3,17.3
0.075469,453.7,14.5,2534.8,108.6,3445.4,221.9,440.6,2526,3390.9,224.7,85.3,17.4
0.077469,455.6,13.2,2535.0,93.0,3437.8,223.5,442.9,2531.9,3405.4,225.4,85.3,17.7
0.079469,457.3,11.9,2531.8,82.4,3422.8,229.5,445.3,2537.6,3419.3,226.1,85.4,18.1
0.081469,458.6,10.5,2527.9,76.7,3412.0,246.0,447.6,2543.2,3432.4,226.8,85.5,18.5
0.083469,459.2,9.5,2525.3,75.8,3415.2,277.5,449.9,2548.6,3444.6,227.5,85.7,18.9
0.085469,459.3,9.0,2524.4,79.6,3429.3,312.3,452.2,2553.8,3455.9,228.2,85.9,19.3
0.087469,459.2,9.0,2523.5,85.9,3442.1,333.8,454.5,2558.8,3466.3,228.9,86.1,19.8
0.089469,459.2,9.2,2521.8,89.4,3451.2,341.2,456.7,2563.5,3475.6,229.6,86.2,20.3
0.091469,459.7,9.7,2520.8,88.0,3463.3,346.3,458.9,2567.9,3483.8,230.2,86.3,20.7
0.093469,461.0,10.5,2522.7,84.7,3480.6,355.9,461.1,2572.1,3490.9,230.9,86.2,20.9
0.095469,462.9,11.4,2528.2,83.1,3501.1,369.5,463.2,2576,3496.9,231.5,86.1,20.7
0.097469,465.2,12.5,2535.8,83.2,3526.4,389.2,465.2,2579.5,3501.7,232.2,86,20.2
0.099469,467.7,13.4,2541.9,83.7,3556.0,416.5,467.2,2582.7,3505.3,232.8,85.7,19.7
0.101469,470.0,14.0,2544.8,83.8,3581.7,446.9,469.1,2585.5,3507.7,233.4,85.5,19.2
0.103469,472.1,14.4,2546.6,82.5,3590.5,473.2,471,2588,3508.9,234,85.3,19.1
0.105469,474.1,14.7,2551.0,78.0,3575.9,484.0,472.8,2590.2,3508.9,234.5,85.1,19.3
0.107469,476.1,15.1,2558.5,68.9,3544.7,468.4,474.5,2591.9,3507.7,235.1,85,19.8
0.109469,477.7,15.4,2565.5,57.7,3508.5,432.5,476.2,2593.3,3505.4,235.6,84.9,20.5
0.111469,478.5,15.4,2570.3,48.4,3481.7,394.1,477.7,2594.3,3502,236.2,84.9,21.1
0.113469,478.7,15.2,2573.8,42.4,3469.9,360.7,479.2,2594.9,3497.6,236.7,85,21.6
0.115469,478.6,14.9,2577.3,40.3,3463.9,336.0,480.6,2595.2,3492.1,237.2,85.2,21.8
0.117469,478.6,14.4,2581.3,41.8,3452.6,317.4,482,2595.1,3485.6,237.7,85.4,22
0.119469,478.9,13.7,2585.6,45.9,3434.2,300.4,483.2,2594.6,3478.2,238.2,85.6,22.1
0.121469,479.5,12.9,2589.3,51.4,3414.1,279.9,484.4,2593.8,3469.9,238.6,85.7,22.3
0.123469,480.1,12.3,2592.1,57.2,3398.4,255.3,485.5,2592.6,3460.9,239.1,85.9,22.7
0.125469,480.8,11.9,2594.4,61.6,3390.7,234.2,486.6,2591.1,3451.1,239.5,86,23.6
0.127469,481.5,12.0,2597.4,63.6,3388.3,223.1,487.5,2589.2,3440.7,240,86.1,24.7
0.129469,482.2,12.4,2601.6,62.3,3388.3,228.0,488.4,2587.1,3429.8,240.4,86.2,25.9
0.131469,483.1,12.8,2606.4,58.4,3389.3,252.4,489.2,2584.6,3418.3,240.8,86.3,26.9
0.133469,484.0,13.2,2610.9,53.7,3392.1,301.8,490,2581.9,3406.5,241.2,86.4,27.6
0.135469,484.8,13.4,2614.3,51.0,3398.7,375.7,490.6,2578.8,3394.4,241.6,86.5,27.8
0.137469,485.6,13.5,2616.3,51.8,3407.7,465.7,491.3,2575.6,3382,242,86.6,27.6
0.139469,486.3,13.5,2616.1,57.9,3407.3,553.0,491.8,2572.1,3369.5,242.3,86.7,27.3
0.141469,486.9,13.4,2612.9,71.5,3385.9,632.4,492.4,2568.4,3356.9,242.7,86.8,27.1
0.143469,487.4,13.3,2605.7,94.3,3343.1,711.0,492.8,2564.5,3344.4,243,86.9,27.3
0.145469,487.8,13.3,2596.4,120.3,3294.8,781.1,493.2,2560.5,3331.9,243.4,87,28
0.147469,488.2,13.4,2588.9,140.4,3254.3,845.5,493.6,2556.3,3319.7,243.7,87.1,29
0.149469,488.6,13.5,2585.5,151.8,3222.4,902.0,493.9,2552,3307.7,244,87.2,30.2
0.151469,488.9,13.6,2583.2,161.8,3190.5,928.7,494.2,2547.6,3296,244.4,87.3,31.2
0.153469,489.2,13.4,2577.6,176.6,3158.0,902.3,494.5,2543.1,3284.7,244.7,87.5,31.9
0.155469,489.5,13.0,2566.7,192.7,3138.5,829.8,494.7,2538.6,3273.9,245,87.6,32.1
0.157469,489.9,12.5,2552.0,201.1,3142.1,737.0,494.9,2534.1,3263.6,245.3,87.7,31.9
0.159469,490.5,12.2,2538.2,195.4,3169.7,646.1,495.1,2529.5,3253.9,245.6,87.8,31.6
0.161469,491.1,11.9,2528.2,181.1,3212.2,565.4,495.3,2524.9,3244.8,245.9,87.9,31.3
0.163469,491.9,11.7,2521.8,168.1,3257.3,500.9,495.4,2520.4,3236.3,246.3,88,31
0.165469,492.6,11.3,2517.8,163.0,3288.0,469.4,495.6,2515.9,3228.5,246.6,88,30.7
0.167469,493.3,10.6,2513.4,164.0,3296.8,469.7,495.7,2511.6,3221.5,246.8,88.1,30.4
0.169469,494.0,9.8,2505.3,165.9,3281.7,484.0,495.8,2507.3,3215.2,247.1,88.2,30.1
0.171469,494.7,9.0,2492.9,165.7,3250.1,490.0,496,2503.1,3209.6,247.4,88.3,30
0.173469,495.3,8.4,2477.8,163.5,3214.6,480.0,496.1,2499,3204.8,247.7,88.4,29.9
0.175469,495.9,7.9,2464.2,158.6,3192.6,460.4,496.2,2495.1,3200.7,248,88.4,30.2
0.177469,496.6,7.7,2454.9,151.4,3189.5,442.2,496.3,2491.4,3197.4,248.3,88.5,30.7
0.179469,497.2,7.6,2450.2,144.6,3200.0,432.2,496.5,2487.8,3194.8,248.5,88.6,31.2
0.181469,497.8,7.6,2448.0,141.4,3214.1,430.9,496.6,2484.4,3192.9,248.8,88.6,31.7
0.183469,498.4,7.5,2445.2,142.0,3226.5,432.9,496.8,2481.2,3191.7,249.1,88.6,31.9
0.185469,499.1,7.4,2440.9,143.9,3235.8,428.5,497,2478.3,3191.1,249.3,88.6,31.9
0.187469,499.8,7.3,2436.4,144.1,3242.7,415.5,497.1,2475.5,3191.2,249.5,88.7,31.6
0.189469,500.5,7.1,2434.7,140.6,3245.4,402.5,497.3,2473,3191.8,249.8,88.7,31.3
0.191469,501.2,6.9,2437.7,132.8,3242.7,397.5,497.5,2470.7,3193,250,88.7,31
0.193469,501.8,6.7,2444.0,122.1,3236.2,401.3,497.7,2468.7,3194.6,250.2,88.6,30.9
0.195469,502.4,6.5,2450.7,111.7,3230.2,408.2,498,2466.9,3196.7,250.4,88.6,31
0.197469,502.9,6.4,2457.2,102.7,3229.0,410.2,498.2,2465.3,3199,250.5,88.6,31.2
0.199469,503.4,6.3,2463.4,96.1,3234.9,405.3,498.4,2464.1,3201.7,250.7,88.5,31.4
0.201469,504.0,6.2,2469.5,92.1,3245.6,401.2,498.7,2463,3204.6,250.8,88.5,31.8
0.203469,504.7,5.9,2475.6,89.7,3255.8,406.0,498.9,2462.2,3207.7,251,88.5,32.1
0.205469,505.3,5.7,2480.9,87.6,3261.6,424.3,499.2,2461.7,3210.8,251,88.4,32.6
0.207469,505.9,5.6,2485.1,86.0,3263.9,459.0,499.5,2461.4,3214,251.1,88.3,33.1
0.209469,506.4,5.6,2487.8,85.2,3264.8,504.6,499.7,2461.3,3217.1,251.2,88.3,33.7
0.211469,506.9,5.7,2488.4,85.4,3264.6,542.5,500,2461.5,3220.1,251.2,88.3,34.2
0.213469,507.2,5.8,2487.0,85.8,3262.6,556.1,500.2,2462,3222.9,251.2,88.2,34.6
0.215469,507.4,5.8,2484.7,85.5,3258.7,549.3,500.5,2462.6,3225.5,251.2,88.2,34.9
0.217469,507.6,5.8,2483.6,84.6,3251.2,541.7,500.7,2463.5,3227.8,251.1,88.1,35.2
0.219469,507.7,5.8,2484.7,83.3,3240.5,543.1,500.9,2464.6,3229.7,251.1,88.1,35.3
0.221469,507.9,5.7,2487.3,81.6,3232.3,546.1,501.2,2465.9,3231.1,250.9,88.1,35.4
0.223469,508.1,5.7,2489.6,79.5,3232.7,535.7,501.3,2467.4,3232.1,250.8,88,35.3
0.225469,508.3,5.7,2490.1,77.4,3239.9,506.2,501.5,2469.1,3232.6,250.6,88,35.1
0.227469,508.3,5.8,2489.1,75.4,3247.0,466.3,501.7,2470.9,3232.5,250.4,88,34.7
0.229469,508.1,6.0,2487.9,73.2,3250.4,430.7,501.8,2473,3231.7,250.2,87.9,34.2
0.231469,507.7,6.1,2487.2,71.3,3249.2,407.9,501.9,2475.2,3230.4,249.9,87.9,33.6
0.233469,507.3,6.3,2485.8,71.8,3243.6,394.3,501.9,2477.5,3228.3,249.6,87.9,32.8
0.235469,506.8,6.3,2481.7,77.1,3232.6,376.0,501.9,2480,3225.6,249.2,87.9,31.7
0.237469,506.0,6.2,2472.7,89.3,3217.0,337.7,501.9,2482.6,3222.2,248.9,87.8,30.4
0.239469,505.1,6.1,2458.4,109.2,3202.7,284.4,501.9,2485.3,3218,248.5,87.8,29
0.241469,503.9,6.2,2441.2,135.7,3193.5,235.0,501.8,2488.1,3213.2,248,87.7,27.6
0.243469,502.6,6.5,2426.2,165.6,3186.1,200.6,501.6,2491.1,3207.6,247.6,87.6,26.5
0.245469,501.3,6.9,2420.8,185.4,3176.6,184.7,501.4,2494.1,3201.3,247.1,87.5,25.5
0.247469,499.9,7.4,2427.1,187.5,3162.9,182.3,501.2,2497.2,3194.3,246.6,87.4,24.6
0.249469,498.5,8.0,2442.8,178.2,3146.6,188.4,500.9,2500.3,3186.7,246,87.2,23.9
0.251469,497.1,8.9,2463.5,170.0,3128.8,198.4,500.5,2503.5,3178.4,245.5,87,23.1
0.253469,495.5,9.9,2485.3,171.5,3106.0,214.6,500.1,2506.8,3169.5,244.9,86.7,22.4
0.255469,493.9,10.8,2504.4,184.4,3078.7,239.8,499.6,2510.1,3160,244.3,86.5,21.5
0.257469,492.2,11.7,2522.7,198.8,3053.8,274.2,499.1,2513.4,3150.1,243.7,86.2,20.5
0.259469,490.6,12.8,2540.8,201.5,3040.0,319.9,498.5,2516.8,3139.6,243.1,85.9,19.6
0.261469,489.1,14.2,2555.5,190.9,3036.8,375.9,497.9,2520.2,3128.8,242.5,85.7,19
0.263469,487.7,15.7,2564.7,176.5,3036.2,436.3,497.2,2523.6,3117.5,241.8,85.4,19
0.265469,486.7,16.9,2569.3,165.9,3033.9,488.4,496.4,2527,3106,241.2,85.1,19.7
0.267469,486.0,17.8,2571.8,157.7,3034.1,533.6,495.6,2530.4,3094.3,240.5,84.9,21.1
0.269469,485.5,18.6,2573.4,150.6,3038.8,581.5,494.7,2533.8,3082.4,239.9,84.6,22.8
0.271469,484.7,19.0,2574.1,146.6,3038.7,645.5,493.8,2537.2,3070.4,239.3,84.4,24.2
0.273469,483.6,19.5,2574.9,147.1,3022.6,730.2,492.8,2540.5,3058.3,238.6,84.1,25
0.275469,482.2,20.4,2576.3,148.7,3000.3,813.6,491.7,2543.9,3046.4,238,83.8,24.8
0.277469,480.6,22.2,2577.5,147.6,2992.9,888.7,490.6,2547.2,3034.5,237.3,83.5,24
0.279469,479.0,24.7,2577.6,143.4,3011.7,954.3,489.5,2550.5,3022.8,236.7,83.2,23
0.281469,477.6,27.3,2577.2,136.9,3047.4,1006.2,488.3,2553.8,3011.4,236.1,82.9,22
0.283469,476.1,29.4,2577.1,127.7,3074.3,1050.7,487,2557.1,3000.4,235.4,82.7,21.6
0.285469,474.9,30.2,2577.5,118.2,3067.2,1107.3,485.7,2560.3,2989.7,234.8,82.5,21.7
0.287469,473.9,30.4,2578.1,109.6,3027.7,1192.8,484.4,2563.5,2979.5,234.2,82.3,22.3
0.289469,473.2,30.2,2578.7,102.7,2982.4,1296.2,483,2566.6,2969.8,233.6,82.2,23.1
0.291469,472.7,29.7,2578.1,100.5,2968.7,1366.5,481.5,2569.7,2960.8,233,82.2,23.7
0.293469,472.2,28.7,2575.4,110.6,2994.7,1322.1,480,2572.8,2952.3,232.3,82.2,23.9
0.295469,471.5,27.4,2569.0,138.4,3019.0,1163.2,478.5,2575.8,2944.6,231.7,82.1,23.6
0.297469,470.9,26.1,2555.9,180.9,3025.5,976.6,477,2578.8,2937.6,231.1,82.1,23
0.299469,470.2,25.1,2540.5,212.9,3022.7,834.7,475.4,2581.8,2931.4,230.5,82,22.3
0.301469,469.7,24.4,2536.6,209.5,3008.2,767.3,473.9,2584.7,2926,229.9,81.9,21.6
0.303469,469.4,23.8,2543.4,185.2,2976.0,750.7,472.2,2587.5,2921.5,229.2,81.9,21.2
0.305469,469.2,23.2,2551.8,166.0,2932.9,756.3,470.6,2590.4,2917.8,228.6,81.8,21.1
0.307469,469.2,22.6,2559.3,157.2,2891.2,769.4,469,2593.2,2915,228,81.7,21.2
0.309469,469.1,22.1,2565.4,158.1,2863.9,773.3,467.3,2595.9,2913.1,227.3,81.7,21.4
0.311469,468.9,21.8,2571.0,167.3,2854.0,751.8,465.7,2598.6,2912.1,226.7,81.6,21.6
0.313469,468.6,21.9,2580.3,177.7,2855.8,720.2,464,2601.3,2912,226,81.5,21.6
0.315469,468.4,22.5,2595.8,176.5,2866.6,721.9,462.3,2603.9,2912.8,225.4,81.5,21.5
0.317469,468.3,23.6,2613.6,163.6,2890.0,765.9,460.7,2606.4,2914.5,224.7,81.4,21.3
0.319469,468.2,24.6,2627.5,150.7,2923.5,820.1,459,2609,2917,224,81.3,21.1
0.321469,468.1,25.2,2634.0,146.8,2952.7,840.0,457.4,2611.4,2920.4,223.3,81.3,20.8
0.323469,467.9,25.2,2632.0,151.8,2965.5,803.8,455.8,2613.9,2924.5,222.6,81.3,20.5
0.325469,467.4,25.2,2625.2,160.1,2963.1,739.2,454.2,2616.2,2929.4,221.9,81.2,20.2
0.327469,466.7,25.5,2619.7,168.1,2954.3,684.2,452.6,2618.6,2935,221.2,81.2,19.9
0.329469,465.5,26.4,2618.0,174.3,2945.1,657.1,451,2620.8,2941.3,220.5,81.1,19.6
0.331469,464.1,27.7,2618.7,175.6,2939.5,661.1,449.5,2623,2948.1,219.7,81.1,19.3
0.333469,462.3,29.4,2620.0,170.2,2939.6,701.1,448,2625.2,2955.5,219,81,19.2
0.335469,460.7,31.5,2621.2,161.7,2947.1,781.9,446.6,2627.3,2963.4,218.2,80.9,19.4
0.337469,459.7,34.0,2622.1,155.7,2967.5,901.5,445.1,2629.3,2971.6,217.5,80.7,19.8
0.339469,459.6,37.1,2622.5,158.4,3007.6,1037.1,443.8,2631.3,2980.3,216.7,80.5,20.3
0.341469,460.4,41.2,2623.8,171.9,3067.9,1167.5,442.4,2633.2,2989.1,216,80.3,20.6
0.343469,461.9,46.7,2627.0,191.0,3142.6,1285.6,441.2,2635,2998.2,215.2,80.1,20.4
0.345469,463.6,53.4,2630.4,200.5,3210.1,1356.6,439.9,2636.8,3007.4,214.5,79.7,19.7
0.347469,465.4,60.9,2634.0,199.7,3225.8,1357.6,438.7,2638.4,3016.7,213.7,79.3,18.5
0.349469,466.4,68.6,2641.2,205.1,3161.7,1296.7,437.6,2640,3025.9,213,78.9,17.1
0.351469,466.4,77.3,2652.8,224.0,3068.5,1185.6,436.5,2641.6,3035,212.2,78.4,15.8
0.353469,464.6,88.8,2662.4,243.6,3001.2,1069.3,435.5,2643,3043.9,211.5,77.9,15
0.355469,461.0,102.7,2661.3,241.7,2975.1,997.0,434.6,2644.4,3052.5,210.8,77.5,14.6
0.357469,455.7,117.5,2654.6,216.0,2971.2,982.2,433.7,2645.6,3060.9,210.1,77.3,14.5
0.359469,449.6,130.9,2651.6,179.8,2975.5,1031.3,432.9,2646.8,3068.8,209.5,77.1,14.6
0.361469,443.6,140.1,2652.7,144.3,2980.0,1134.7,432.1,2647.9,3076.3,208.8,77.1,14.7
0.363469,437.1,142.5,2653.6,113.6,2987.9,1267.8,431.4,2648.9,3083.3,208.2,77.2,14.8
0.365469,430.6,139.8,2651.7,91.3,3019.6,1379.7,430.8,2649.8,3089.7,207.6,77.4,14.9
0.367469,424.1,137.0,2648.9,76.8,3080.0,1454.3,430.2,2650.5,3095.4,207,77.5,15.1
0.369469,418.4,138.5,2647.2,68.8,3145.0,1505.0,429.8,2651.2,3100.5,206.5,77.5,15.3
0.371469,413.0,147.0,2646.7,64.9,3187.9,1549.4,429.3,2651.8,3104.9,206,77.6,15.3
0.373469,406.1,161.8,2646.6,63.9,3174.3,1601.1,429,2652.3,3108.6,205.5,77.5,15
0.375469,395.5,176.9,2647.4,65.6,3088.4,1659.0,428.8,2652.7,3111.4,205.1,77.5,14.4
0.377469,379.3,188.7,2651.4,67.5,2987.0,1678.2,428.6,2652.9,3113.5,204.7,77.5,13.4
0.379469,358.7,195.1,2662.0,64.7,2961.0,1668.3,428.5,2653.1,3114.7,204.3,77.5,12.3
0.381469,338.8,189.2,2677.5,54.6,3028.1,1618.1,428.4,2653.2,3115.1,203.9,77.5,11.3
