time,f1,b1,f2,b2,f3,b3,f1p,f2p,f3p,f0,intensity,harmonicity
0.025626,357.1,79.3,2766.0,184.6,3270.3,269.6,371,2793.3,3417.4,230.4,83.3,15.6
0.027626,358.8,80.7,2780.9,156.1,3333.2,272.3,371.9,2795,3421.4,231.6,83.3,15.1
0.029626,363.0,77.0,2792.8,139.9,3391.7,267.8,373.6,2797.6,3427.9,233,83.4,14.3
0.031626,369.6,69.8,2805.1,130.0,3442.9,261.9,375.8,2801.2,3436.8,234.4,83.4,13.6
0.033626,376.6,62.5,2817.5,121.8,3484.3,259.9,378.7,2805.6,3447.6,235.9,83.4,12.8
0.035626,383.7,57.6,2828.3,114.1,3517.6,261.4,382.1,2810.6,3460.2,237.5,83.5,12.3
0.037626,390.3,56.7,2835.6,110.2,3540.1,262.2,386.2,2816,3474.1,239.2,83.4,11.8
0.039626,395.6,59.5,2839.6,112.3,3550.6,255.3,390.7,2821.6,3489,241,83.4,11.3
0.041626,399.1,65.5,2840.9,118.4,3553.9,237.4,395.8,2827.1,3504.2,242.8,83.3,10.9
0.043626,401.1,74.1,2839.2,122.1,3557.3,215.4,401.3,2832.4,3519.5,244.7,83.1,10.6
0.045626,403.5,85.2,2834.9,118.4,3564.4,196.1,407.3,2837.2,3534.3,246.6,82.9,10.2
0.047626,408.5,97.0,2829.3,106.9,3573.2,181.8,413.6,2841.2,3548.2,248.6,82.6,10.1
0.049626,418.7,106.4,2824.5,91.8,3581.6,173.1,420.3,2844.3,3560.8,250.7,82.3,10
0.051626,433.3,111.6,2823.3,79.0,3587.0,171.4,427.2,2846.2,3571.6,252.8,82,9.8
0.053626,449.4,115.9,2826.6,70.9,3587.8,176.0,434.3,2846.7,3580.5,254.9,81.6,9.5
0.055626,463.4,124.5,2833.9,67.8,3582.7,184.9,441.5,2845.7,3587.2,257.1,81.2,8.8
0.057626,473.4,141.2,2842.5,68.8,3573.8,194.0,448.8,2843.1,3591.4,259.2,80.9,7.8
0.059626,480.2,168.4,2848.2,73.0,3564.4,199.2,456.2,2838.8,3593,261.4,80.5,6.6
0.061626,485.2,202.9,2846.2,79.9,3556.4,198.8,463.5,2832.7,3592.2,263.6,80.3,5.5
0.063626,490.1,240.5,2834.9,89.3,3550.0,195.7,470.7,2824.7,3588.8,265.8,80.2,4.5
0.065626,493.8,272.0,2815.8,97.9,3546.3,192.3,477.8,2814.9,3583,268.1,80.2,4
0.067626,494.0,290.1,2795.3,99.4,3545.8,188.5,484.7,2803.2,3575.1,270.3,80.4,3.8
0.069626,489.3,298.7,2780.2,93.1,3546.0,186.3,491.5,2789.7,3565.3,272.5,80.6,3.8
0.071626,481.2,305.8,2772.8,85.8,3543.2,188.2,498.1,2774.4,3553.8,274.7,80.9,3.9
0.073626,473.6,314.2,2768.9,82.5,3535.3,194.1,504.4,2757.3,3541.1,276.9,81.1,4.1
0.075626,472.0,318.8,2763.4,84.8,3522.5,200.4,510.6,2738.6,3527.6,279,81.3,4.3
0.077626,479.4,315.8,2751.5,92.8,3507.6,203.2,516.6,2718.2,3513.6,281.2,81.4,4.7
0.079626,493.1,311.5,2728.6,105.0,3495.5,201.7,522.5,2696.3,3499.6,283.3,81.4,5.1
0.081626,506.1,311.7,2695.6,115.9,3489.5,199.9,528.3,2672.8,3485.9,285.4,81.3,5.6
0.083626,514.1,316.4,2657.2,122.5,3487.8,204.0,534,2647.8,3472.9,287.5,81.3,5.9
0.085626,519.2,326.4,2620.3,128.6,3489.9,217.9,539.9,2621.3,3461.1,289.5,81.2,6
0.087626,528.0,341.6,2584.4,139.2,3496.2,238.0,545.8,2593.4,3450.6,291.5,81.1,6
0.089626,545.3,352.9,2543.2,151.9,3502.9,255.8,552,2563.9,3441.7,293.4,81,5.8
0.091626,567.8,345.6,2498.2,156.5,3499.2,265.1,558.5,2532.9,3434.7,295.3,80.9,5.6
0.093626,589.7,319.0,2455.2,149.1,3479.0,265.0,565.4,2500.3,3429.7,297.1,80.7,5.6
0.095626,605.0,285.6,2421.2,138.0,3445.3,256.1,572.7,2466.1,3426.7,298.8,80.6,5.8
0.097626,612.4,256.3,2393.8,133.5,3408.1,245.3,580.6,2430.3,3425.8,300.3,80.6,6.3
0.099626,615.7,232.4,2363.9,138.1,3376.6,242.4,589,2392.9,3426.8,301.8,80.7,6.9
0.101626,619.2,210.0,2327.6,143.6,3356.4,251.9,598.2,2353.8,3429.6,303.1,80.8,7.5
0.103626,624.5,184.2,2286.5,140.3,3346.3,274.2,608,2313.1,3434.2,304.3,80.8,8
0.105626,631.5,159.1,2249.9,129.6,3348.5,313.3,618.5,2270.7,3440.2,305.3,80.8,8.4
0.107626,639.8,144.0,2224.6,123.1,3373.8,373.4,629.7,2226.7,3447.4,306.1,80.7,8.5
0.109626,649.3,142.9,2208.9,130.8,3430.8,445.0,641.5,2181.2,3455.4,306.6,80.5,8.5
0.111626,659.4,156.7,2196.8,164.8,3495.4,504.6,654,2134.4,3464.1,306.9,80.4,8.5
0.113626,671.2,189.2,2178.9,254.9,3546.5,571.4,667,2086.4,3473,306.8,80.3,8.7
0.115626,685.0,242.7,2142.9,448.0,3581.9,655.3,680.3,2037.4,3481.8,306.5,80.3,9.2
0.117626,698.7,303.1,2076.8,728.5,3595.2,703.4,693.9,1987.6,3490.2,305.8,80.4,9.9
0.119626,707.8,339.4,1987.9,926.0,3576.5,673.5,707.7,1937.4,3498,304.8,80.7,10.8
0.121626,711.0,345.2,1898.9,937.5,3531.0,590.5,721.3,1887.1,3504.8,303.4,80.9,11.8
0.123626,713.7,339.3,1810.3,830.5,3482.6,482.4,734.8,1837.1,3510.4,301.7,81.1,12.6
0.125626,719.5,329.7,1737.1,676.5,3454.7,385.5,747.8,1787.7,3514.7,299.5,81.2,13.2
0.127626,729.6,318.4,1686.6,534.3,3452.2,324.7,760.1,1739.3,3517.5,296.9,81.2,13.8
0.129626,743.3,310.9,1651.4,432.2,3473.8,304.4,771.6,1692.5,3518.6,294,81.2,14.3
0.131626,757.4,316.2,1621.4,380.1,3512.8,318.3,782.1,1647.6,3518.1,290.6,81.2,14.7
0.133626,771.2,340.2,1584.2,361.9,3550.8,347.9,791.3,1604.9,3516,286.9,81.3,14.9
0.135626,785.8,386.2,1534.0,357.2,3558.6,374.1,799.2,1565,3512.2,282.9,81.4,14.8
0.137626,800.9,446.6,1476.4,336.1,3528.7,375.6,805.4,1528.1,3506.9,278.5,81.5,14.3
0.139626,814.0,495.5,1429.8,283.2,3483.8,344.0,810.1,1494.6,3500.1,273.9,81.7,13.6
0.141626,826.2,507.6,1409.9,227.4,3449.6,309.5,812.9,1464.7,3492.1,269,82,12.9
0.143626,838.0,499.8,1408.2,188.6,3428.0,300.8,814,1438.6,3482.9,263.9,82.4,12.5
0.145626,842.0,493.6,1413.0,163.4,3416.3,323.1,813.3,1416.4,3472.9,258.7,82.9,12.7
0.147626,834.9,488.9,1416.5,141.0,3413.6,364.7,810.7,1398.3,3462.1,253.4,83.5,13.4
0.149626,820.5,479.5,1416.5,117.0,3419.9,408.1,806.4,1384.1,3450.8,248,84,14.3
0.151626,805.1,462.9,1414.3,95.2,3430.1,433.9,800.5,1373.8,3439.1,242.6,84.5,15.3
0.153626,791.0,436.1,1411.5,77.1,3438.7,436.0,793.1,1367.1,3427.4,237.3,84.9,16.1
0.155626,779.3,398.7,1409.2,63.7,3444.9,413.8,784.4,1363.9,3415.7,232,85.2,16.6
0.157626,770.0,354.2,1407.6,54.7,3450.7,374.7,774.6,1363.8,3404.3,226.9,85.4,16.8
0.159626,762.1,304.7,1406.4,49.3,3455.3,333.3,764,1366.4,3393.3,222,85.3,16.8
0.161626,755.2,257.1,1405.7,47.3,3454.5,306.1,752.8,1371.4,3382.8,217.3,85.1,16.8
0.163626,748.1,214.2,1405.2,48.7,3444.5,293.6,741.2,1378.2,3372.9,212.9,84.8,16.7
0.165626,740.1,179.3,1404.8,54.6,3419.7,288.5,729.6,1386.3,3363.9,208.7,84.3,16.5
0.167626,731.5,154.5,1404.1,66.8,3380.0,280.0,718.3,1395.4,3355.6,204.7,83.7,16.2
0.169626,722.3,141.3,1403.0,88.6,3335.2,266.0,707.5,1404.7,3348.2,201.1,83,15.8
0.171626,712.9,140.7,1401.6,120.8,3302.9,257.5,697.5,1414,3341.7,197.8,82.3,15.4
0.173626,702.2,148.5,1401.2,165.9,3287.1,263.4,688.6,1422.7,3336.3,194.7,81.5,15
0.175626,689.6,159.5,1404.1,229.9,3286.7,284.0,681,1430.4,3331.7,192,80.7,14.7
0.177626,675.5,169.2,1412.1,322.8,3296.2,311.9,674.9,1436.7,3328.2,189.5,80,14.5
0.179626,658.9,178.5,1423.5,450.6,3309.7,337.1,670.4,1441.5,3325.7,187.3,79.3,14.3
0.181626,639.9,195.0,1429.1,580.1,3321.6,347.5,667.7,1444.4,3324.2,185.4,78.7,14.1
0.183626,617.0,230.6,1418.1,664.5,3324.5,349.9,666.7,1445.4,3323.7,183.7,78.2,13.7
