time,f1,b1,f2,b2,f3,b3,f1p,f2p,f3p,f0,intensity,harmonicity
0.026002,285.0,102.1,1926.6,26.2,3233.2,58.0,275.1,1945.1,3221.8,214.9,79.5,26
0.028002,283.3,105.0,1934.3,33.7,3237.1,63.7,278.5,1943.9,3219.9,215.6,79.5,25.2
0.030002,284.4,110.0,1942.7,45.8,3234.0,70.1,283.9,1942,3216.9,216.3,79.4,24.2
0.032002,289.4,117.4,1949.7,61.0,3224.0,76.1,291.4,1939.5,3212.6,217.2,79.3,23.1
0.034002,298.6,126.9,1954.0,76.9,3207.9,82.8,300.7,1936.3,3207,218,79.1,22.2
0.036002,310.0,136.1,1953.4,89.5,3186.6,90.3,311.6,1932.8,3200.3,218.9,78.8,21.4
0.038002,320.6,143.7,1947.9,98.9,3162.4,96.4,323.8,1928.9,3192.3,219.9,78.4,20.7
0.040002,330.1,150.4,1937.1,107.2,3141.8,99.3,337,1924.8,3183,220.9,78,20
0.042002,337.3,155.0,1922.4,113.1,3137.8,100.4,351.1,1920.8,3172.6,221.9,77.4,19.1
0.044002,347.4,156.3,1905.4,109.1,3148.8,100.1,365.6,1916.9,3161,223,76.7,17.8
0.046002,367.4,152.5,1892.3,90.1,3160.3,97.3,380.2,1913.2,3148.3,224,76,15.7
0.048002,395.3,135.9,1886.3,68.5,3161.0,97.2,394.6,1910,3134.6,225.1,75.3,13.1
0.050002,422.8,100.2,1884.4,53.5,3148.4,107.0,408.7,1907.2,3119.8,226.2,74.8,10.4
0.052002,442.1,63.7,1885.1,47.4,3125.0,129.6,422.1,1905.1,3104.1,227.3,74.6,8
0.054002,454.5,40.3,1888.8,46.6,3096.9,161.6,434.5,1903.6,3087.6,228.4,75.1,6.6
0.056002,461.1,30.2,1896.0,49.8,3073.9,191.8,445.9,1902.7,3070.5,229.4,76,6.2
0.058002,464.6,25.8,1904.8,55.3,3055.1,215.0,456.1,1902.6,3052.8,230.5,77.2,6.6
0.060002,467.6,23.1,1914.0,61.3,3033.8,231.0,465,1903.1,3034.9,231.5,78.4,7.5
0.062002,470.6,21.4,1922.1,64.4,3011.5,231.7,472.6,1904.2,3016.8,232.5,79.7,8.6
0.064002,474.0,19.9,1929.3,63.8,2991.0,220.1,478.8,1905.9,2998.7,233.5,80.8,9.5
0.066002,477.2,18.2,1934.0,61.9,2975.3,206.9,483.7,1908,2980.9,234.4,81.7,10.5
0.068002,479.8,16.3,1935.4,60.8,2960.6,192.4,487.4,1910.5,2963.7,235.2,82.6,11.6
0.070002,481.9,14.0,1933.4,61.8,2942.1,173.6,489.9,1913.2,2947.1,236,83.2,12.8
0.072002,483.4,11.8,1928.2,65.0,2923.3,156.4,491.5,1916,2931.6,236.8,83.7,13.9
0.074002,484.9,9.7,1920.6,68.6,2907.1,144.4,492.2,1918.9,2917.2,237.5,84.1,14.9
0.076002,486.4,8.1,1913.1,69.4,2895.8,137.3,492.3,1921.6,2904.2,238.2,84.3,15.8
0.078002,487.8,7.2,1908.6,67.2,2889.0,131.8,491.9,1924.3,2892.9,238.8,84.3,16.6
0.080002,489.1,7.0,1907.4,64.7,2885.3,125.1,491.1,1926.7,2883.4,239.4,84.3,17.3
0.082002,490.2,7.4,1908.8,64.4,2883.3,117.4,490.2,1928.8,2875.8,239.9,84.1,17.9
0.084002,491.0,8.4,1911.7,66.4,2880.3,112.5,489.3,1930.7,2870.3,240.4,83.8,18.4
0.086002,491.4,10.0,1916.0,70.2,2876.0,115.4,488.5,1932.2,2867,240.8,83.4,18.8
0.088002,491.4,12.1,1921.3,74.4,2872.1,125.8,487.9,1933.5,2865.9,241.2,83,19.1
0.090002,491.2,14.7,1926.8,79.3,2870.2,142.6,487.6,1934.6,2867.2,241.6,82.6,19.3
0.092002,491.0,17.3,1930.6,85.2,2871.8,164.8,487.7,1935.5,2870.6,241.9,82.2,19.6
0.094002,491.1,19.6,1933.4,91.8,2877.1,197.3,488.2,1936.3,2876.2,242.2,81.9,20
0.096002,491.6,21.6,1936.9,95.3,2886.2,242.9,489,1937.1,2883.9,242.5,81.7,20.7
0.098002,492.6,23.5,1942.5,92.4,2899.3,296.3,490.2,1938,2893.5,242.7,81.5,21.5
0.100002,494.1,25.7,1949.5,83.6,2916.3,346.3,491.7,1939,2904.8,242.9,81.4,22.4
0.102002,495.8,27.4,1955.1,73.6,2929.2,370.1,493.5,1940.3,2917.5,243.2,81.3,23.3
0.104002,497.7,28.2,1958.4,65.1,2933.9,367.8,495.4,1941.9,2931.4,243.4,81.3,24
0.106002,499.6,28.2,1959.8,59.3,2933.2,353.2,497.5,1943.8,2946.3,243.5,81.2,24.6
0.108002,501.2,27.9,1960.1,55.6,2934.5,341.7,499.5,1946.1,2961.7,243.7,81.2,25
0.110002,502.6,27.8,1959.7,52.7,2943.8,340.4,501.4,1948.7,2977.4,243.9,81.2,25.4
0.112002,503.4,28.4,1959.4,50.2,2963.9,349.6,503.2,1951.6,2992.9,244,81.2,25.9
0.114002,503.8,29.5,1959.6,46.7,2996.7,360.2,504.8,1954.8,3008,244.1,81.3,26.4
0.116002,504.0,31.1,1960.6,42.3,3034.3,353.4,506,1958.1,3022.3,244.3,81.3,27
0.118002,504.1,32.5,1962.0,38.1,3061.8,323.7,506.9,1961.4,3035.4,244.4,81.3,27.8
0.120002,504.1,33.0,1962.9,35.3,3074.0,287.1,507.4,1964.7,3047.1,244.5,81.4,28.6
0.122002,503.8,32.6,1962.9,34.2,3074.8,266.7,507.5,1967.6,3057.1,244.6,81.4,29.3
0.124002,503.2,31.6,1961.8,34.0,3071.1,268.2,507.2,1970.2,3065.1,244.7,81.5,29.8
0.126002,502.5,30.4,1960.0,34.2,3067.0,290.1,506.5,1972.2,3071,244.8,81.5,30.2
0.128002,501.8,29.2,1958.3,34.6,3066.4,324.5,505.6,1973.4,3074.5,244.9,81.6,30.6
0.130002,501.0,27.8,1957.1,35.9,3072.3,366.1,504.3,1973.7,3075.6,244.9,81.6,30.8
0.132002,500.4,26.5,1956.5,38.3,3080.8,400.3,502.8,1972.9,3074.2,245,81.7,31
0.134002,499.8,25.1,1956.3,41.9,3082.9,416.8,501.1,1971,3070.3,245,81.7,30.9
0.136002,499.4,23.9,1955.9,45.8,3074.0,413.8,499.3,1967.9,3064.1,245.1,81.8,30.6
0.138002,498.9,22.7,1954.8,49.4,3059.1,406.2,497.5,1963.5,3055.5,245.1,81.9,30.1
0.140002,498.1,21.3,1952.6,53.4,3041.1,405.8,495.7,1957.8,3044.8,245.2,81.9,29.5
0.142002,497.1,20.0,1949.7,58.3,3021.3,407.7,494,1950.9,3032.2,245.2,82,29
0.144002,496.0,18.8,1946.4,64.7,3000.8,397.9,492.4,1942.8,3018,245.2,82.1,28.6
0.146002,494.9,17.8,1943.2,71.4,2985.1,376.9,491,1933.8,3002.5,245.2,82.1,28.6
0.148002,493.8,16.9,1939.9,77.8,2974.4,360.3,489.8,1923.9,2986,245.2,82.1,28.8
0.150002,492.6,16.0,1935.1,85.0,2963.8,358.7,488.7,1913.4,2968.9,245.2,82.1,29
0.152002,491.4,15.0,1927.8,93.4,2950.5,376.0,487.9,1902.5,2951.6,245.1,82.1,29.2
0.154002,490.2,14.1,1916.7,103.8,2932.9,409.1,487.3,1891.5,2934.4,245.1,82,29.3
0.156002,489.1,13.3,1903.1,114.3,2915.5,449.3,486.9,1880.6,2917.8,245.1,81.9,29.4
0.158002,488.3,12.7,1889.2,123.0,2904.4,491.2,486.6,1870.2,2902.1,245,81.7,29.4
0.160002,487.7,12.4,1875.0,130.0,2901.0,539.1,486.4,1860.5,2887.6,245,81.5,29.4
0.162002,487.1,12.2,1861.0,134.7,2901.8,586.8,486.4,1851.8,2874.8,245,81.3,29.2
0.164002,486.3,12.1,1845.9,137.7,2898.6,628.2,486.4,1844.3,2863.9,244.9,81,28.6
0.166002,485.2,12.1,1830.9,140.4,2884.7,653.4,486.4,1838.2,2855.2,244.8,80.7,27.5
0.168002,483.5,12.2,1816.4,144.9,2859.0,667.6,486.5,1833.7,2848.7,244.8,80.2,26
0.170002,481.2,12.5,1800.5,153.8,2821.8,685.6,486.5,1831,2844.8,244.7,79.7,24.3
0.172002,478.2,13.2,1784.7,166.9,2784.3,716.1,486.5,1830.1,2843.5,244.7,79.1,22.7
