time,f1,b1,f2,b2,f3,b3,f1p,f2p,f3p,f0,intensity,harmonicity
0.026002,399.2,79.7,2348.8,404.5,3154.2,522.7,373,2302.8,3093.1,185.6,68.7,26.6
0.028002,387.4,78.8,2303.2,420.9,3107.6,346.9,373.4,2303.4,3094.4,185.6,69.2,26.5
0.030002,370.4,84.4,2278.8,407.8,3091.7,255.0,374.1,2304.5,3096.5,185.6,69.5,19.4
0.032002,353.5,97.1,2274.9,372.0,3087.7,207.2,375.2,2306,3099.2,185.6,69.8,11
0.034002,345.2,118.5,2288.1,309.7,3089.3,175.6,376.8,2308,3102.6,185.7,69.9,6.9
0.036002,350.2,144.7,2308.0,240.4,3090.7,151.9,379.1,2310.6,3106.3,185.7,70,7.2
0.038002,365.2,167.2,2324.5,185.4,3090.7,133.7,382,2313.8,3110.3,185.8,70.1,8.4
0.040002,381.5,177.5,2333.3,153.7,3093.9,120.2,385.8,2317.7,3114.5,185.9,70.1,9.9
0.042002,394.8,178.7,2336.8,137.2,3102.1,109.5,390.5,2322.3,3118.5,186.1,70,11.4
0.044002,406.3,174.9,2338.6,129.7,3112.6,102.6,396.3,2327.7,3122.4,186.2,69.8,12.5
0.046002,417.2,169.3,2340.9,126.8,3121.8,100.1,403.2,2333.8,3125.9,186.4,69.6,13.1
0.048002,429.1,164.9,2344.8,124.1,3129.0,99.6,411.2,2340.7,3129,186.7,69.3,13.4
0.050002,441.8,162.9,2349.9,118.9,3134.1,99.3,420.2,2348.4,3131.5,186.9,68.9,13.6
0.052002,453.5,160.3,2355.8,112.0,3138.7,100.4,430.3,2356.8,3133.5,187.3,68.6,13.8
0.054002,462.6,156.3,2361.5,106.1,3143.1,105.2,441.3,2365.8,3134.9,187.6,68.4,14
0.056002,470.1,152.9,2367.1,101.7,3146.7,114.2,453.1,2375.4,3135.8,188,68.3,14.2
0.058002,477.2,150.7,2373.8,97.7,3149.7,128.8,465.3,2385.5,3136.2,188.5,68.2,14.5
0.060002,483.1,148.7,2382.6,95.1,3151.5,150.2,477.8,2395.9,3136.3,189.1,68.3,14.7
0.062002,487.2,146.5,2393.3,94.6,3148.7,176.1,490.4,2406.4,3136.2,189.7,68.5,14.9
0.064002,490.7,145.5,2404.8,95.9,3138.6,195.7,502.6,2416.8,3136.1,190.3,68.7,14.9
0.066002,494.7,146.0,2415.3,98.6,3128.2,204.0,514.1,2427,3136.1,191.1,68.9,14.9
0.068002,500.2,147.5,2426.0,105.2,3126.2,213.6,524.8,2436.7,3136.3,191.9,69.1,14.9
0.070002,507.1,150.0,2438.2,119.9,3134.4,236.7,534.2,2445.7,3137.1,192.7,69.2,14.8
0.072002,515.3,153.2,2454.9,148.2,3146.5,275.4,542.1,2453.9,3138.4,193.7,69.3,14.6
0.074002,523.6,154.9,2476.0,191.4,3149.3,315.2,548.2,2460.9,3140.5,194.7,69.3,14.3
0.076002,533.0,153.0,2492.5,227.5,3137.4,321.1,552.5,2466.7,3143.3,195.8,69.3,13.9
0.078002,545.0,147.0,2498.0,223.8,3131.0,275.1,554.7,2471,3147,197,69.3,13.4
0.080002,556.4,139.0,2497.8,188.8,3142.8,210.9,554.8,2473.7,3151.4,198.3,69.3,12.8
0.082002,564.4,132.1,2495.8,162.1,3159.1,161.5,552.8,2474.7,3156.4,199.6,69.3,12.2
0.084002,568.2,127.6,2491.5,157.8,3169.5,133.1,548.8,2474,3162.1,201.1,69.3,11.7
0.086002,568.7,126.9,2484.3,173.0,3173.5,118.5,543,2471.4,3168.1,202.6,69.3,11.3
0.088002,565.8,131.7,2472.6,201.5,3175.1,107.9,535.6,2467,3174.2,204.2,69.5,10.7
0.090002,557.6,142.7,2455.1,230.0,3177.8,98.4,526.9,2460.8,3180.2,205.8,69.9,10.3
0.092002,542.3,156.8,2432.2,243.2,3182.7,90.9,517.2,2453,3185.7,207.6,70.4,10
0.094002,520.0,166.3,2408.9,234.4,3188.2,87.3,506.9,2443.6,3190.4,209.4,71.1,9.9
0.096002,495.5,163.1,2393.1,213.6,3190.8,88.8,496.5,2432.8,3194.1,211.2,72.1,10.1
0.098002,472.3,144.6,2386.4,193.4,3187.8,96.1,486.2,2420.8,3196.2,213.2,73.1,10.6
0.100002,456.4,118.2,2386.2,180.8,3179.1,107.7,476.5,2407.8,3196.7,215.2,74.3,11.2
0.102002,448.2,93.9,2385.8,173.2,3169.2,120.4,467.8,2394.1,3195.1,217.3,75.4,11.8
0.104002,445.1,75.4,2381.1,167.8,3163.2,133.0,460.4,2379.8,3191.4,219.4,76.5,12.3
0.106002,444.2,62.0,2373.2,163.4,3163.7,146.4,454.6,2365.3,3185.2,221.7,77.6,12.6
0.108002,444.4,51.1,2365.4,158.7,3171.3,163.6,450.6,2350.8,3176.6,223.9,78.5,12.9
0.110002,445.5,42.8,2360.1,155.9,3184.2,185.9,448.6,2336.6,3165.4,226.3,79.2,13
0.112002,447.9,37.0,2353.1,162.0,3196.6,214.9,448.5,2322.9,3151.9,228.6,79.8,13.1
0.114002,451.9,33.2,2337.5,183.5,3198.7,249.0,450.4,2309.9,3136.1,231.1,80.2,12.9
0.116002,457.4,30.4,2313.2,210.8,3178.8,273.3,454.1,2297.8,3118.3,233.5,80.5,12.5
0.118002,464.3,27.1,2287.9,229.4,3140.3,273.8,459.6,2286.9,3098.8,236.1,80.7,11.8
0.120002,471.7,23.0,2268.5,233.5,3101.8,265.0,466.4,2277.2,3077.9,238.6,80.8,11
0.122002,479.3,19.1,2252.6,226.0,3067.1,260.4,474.4,2269,3056,241.3,81,10.2
0.124002,487.0,16.3,2242.0,215.2,3034.6,263.7,483,2262.2,3033.6,243.9,81,9.6
0.126002,494.4,15.1,2241.7,212.1,3001.3,276.8,492,2256.9,3011.2,246.6,81.1,9.1
0.128002,502.3,15.4,2253.5,223.5,2960.0,296.9,500.9,2253.1,2989.3,249.3,81.1,8.8
0.130002,509.9,17.1,2271.6,248.2,2916.5,309.7,509.3,2250.8,2968.3,252.1,81,8.4
0.132002,516.6,19.5,2280.9,276.7,2881.7,303.0,516.8,2250,2948.7,254.9,80.7,8.1
0.134002,521.7,22.3,2269.5,297.6,2858.3,278.4,523.1,2250.6,2930.9,257.7,80.4,7.6
0.136002,524.6,25.0,2245.6,299.4,2844.8,251.3,527.7,2252.5,2915.2,260.5,79.8,7
0.138002,525.0,28.5,2228.6,280.6,2841.5,236.3,530.5,2255.5,2902,263.4,79.2,6.3
0.140002,522.5,34.8,2231.7,251.7,2851.0,239.9,531.4,2259.5,2891.3,266.2,78.4,5.5
0.142002,518.2,46.0,2247.5,219.4,2871.3,247.5,530.1,2264.3,2883.3,269,77.7,4.8
0.144002,517.8,58.1,2263.9,187.8,2899.4,243.4,526.7,2269.9,2878,271.9,77.1,4.3
0.146002,522.2,62.8,2275.5,165.3,2931.9,231.8,521.4,2276,2875.3,274.7,76.6,4
0.148002,525.0,62.1,2283.8,154.7,2968.8,222.9,514.2,2282.4,2875.1,277.5,76.3,3.8
0.150002,521.5,63.2,2291.3,159.3,3000.5,226.4,505.4,2289,2877,280.2,75.9,3.7
0.152002,509.9,71.1,2303.5,182.2,3011.8,253.9,495.3,2295.7,2880.8,283,75.5,3.7
0.154002,489.8,86.2,2320.4,226.2,2985.2,309.4,484.4,2302.2,2886.1,285.6,74.9,3.6
0.156002,468.7,102.8,2329.6,288.9,2923.6,359.0,473,2308.4,2892.5,288.3,74.3,3.5
0.158002,457.7,116.5,2323.7,368.2,2856.2,365.8,461.6,2314.3,2899.6,290.8,73.5,3.4
0.160002,457.4,122.7,2310.7,447.4,2817.8,352.9,450.5,2319.6,2906.8,293.3,72.7,3.3
0.162002,456.2,121.9,2302.9,514.1,2807.1,358.3,440.4,2324.2,2913.7,295.7,71.7,3.3
0.164002,447.8,117.8,2308.0,532.5,2821.2,397.1,431.4,2328.2,2920,298,70.7,3.5
0.166002,433.2,110.8,2322.0,474.4,2859.0,453.8,424.1,2331.3,2925.4,300.1,69.5,3.9
0.168002,413.6,99.1,2334.0,377.7,2911.3,472.1,418.6,2333.6,2929.4,302.2,68.2,4.6
0.170002,394.6,84.6,2343.6,294.1,2964.9,421.0,415.2,2335,2931.9,304.2,66.9,5.4
0.172002,383.7,72.2,2356.6,236.2,3021.7,339.4,414.1,2335.5,2932.7,306.1,65.5,6.1
