time,f1,b1,f2,b2,f3,b3,f1p,f2p,f3p,f0,intensity,harmonicity
0.025288,550.7,72.4,2045.9,55.7,2981.4,237.0,701.6,2071.3,2932.2,211.2,80.7,11.3
0.027288,587.1,62.3,2047.3,54.7,2981.2,191.8,701.9,2070.8,2932.4,211.2,80.7,10.9
0.029288,613.7,52.8,2050.2,52.4,2989.4,159.3,702.3,2070.1,2932.8,211.1,80.7,10.8
0.031288,630.0,45.9,2054.1,50.3,2997.8,141.2,703,2069,2933.3,211.1,80.8,11.3
0.033288,640.0,41.6,2057.4,48.1,3003.2,133.2,703.8,2067.6,2933.9,211.2,80.9,12
0.035288,646.7,39.6,2059.1,45.4,3005.6,131.9,704.8,2065.8,2934.6,211.2,81,12.7
0.037288,651.2,40.7,2059.3,42.8,3007.6,135.3,706,2063.8,2935.5,211.2,81,13.2
0.039288,654.5,45.4,2059.1,41.0,3011.7,140.9,707.4,2061.5,2936.5,211.2,80.9,13.4
0.041288,657.7,53.8,2058.9,39.8,3016.1,146.2,708.9,2058.9,2937.6,211.2,80.8,13.2
0.043288,661.8,66.5,2059.0,39.6,3017.9,155.0,710.6,2056.1,2938.9,211.3,80.6,12.8
0.045288,668.2,86.2,2059.0,41.1,3015.5,173.9,712.4,2052.9,2940.2,211.3,80.4,12.5
0.047288,678.9,115.1,2058.6,44.9,3008.1,210.2,714.3,2049.5,2941.7,211.3,80.1,12.5
0.049288,694.7,150.5,2057.5,51.2,2994.5,269.8,716.4,2045.9,2943.2,211.4,79.9,13.1
0.051288,712.4,184.4,2055.5,58.9,2972.8,352.5,718.6,2041.9,2944.8,211.5,79.7,14.2
0.053288,728.7,207.5,2052.8,66.4,2944.5,444.8,720.9,2037.8,2946.5,211.6,79.6,15.7
0.055288,744.4,215.6,2049.6,72.6,2917.6,523.8,723.2,2033.5,2948.3,211.7,79.5,17.3
0.057288,759.9,210.9,2046.1,78.0,2897.0,570.4,725.7,2028.9,2950.1,211.8,79.4,18.5
0.059288,772.9,199.9,2040.9,84.2,2876.0,574.7,728.2,2024.1,2952,211.9,79.3,19.1
0.061288,781.7,188.4,2032.7,90.9,2850.0,543.0,730.8,2019.2,2953.9,212.1,79.2,19.4
0.063288,787.0,178.4,2022.8,96.4,2826.8,498.7,733.3,2014.1,2955.8,212.2,79.1,19.3
0.065288,790.2,168.4,2014.2,99.7,2814.1,461.8,736,2008.8,2957.8,212.4,79,19.2
0.067288,792.8,154.9,2007.7,101.5,2809.4,432.2,738.6,2003.4,2959.7,212.6,78.9,19
0.069288,795.3,136.6,2001.7,102.0,2806.0,400.5,741.2,1997.8,2961.7,212.8,78.8,19
0.071288,797.5,117.2,1994.8,102.3,2804.4,364.5,743.8,1992.2,2963.7,213,78.7,19
0.073288,799.4,101.8,1986.2,104.2,2812.0,329.5,746.4,1986.4,2965.6,213.2,78.6,19
0.075288,801.0,93.1,1975.2,108.9,2833.9,300.4,748.9,1980.6,2967.5,213.4,78.4,19
0.077288,802.8,89.8,1961.2,114.0,2866.3,275.0,751.3,1974.7,2969.4,213.6,78.3,19
0.079288,805.0,88.5,1945.5,114.3,2901.0,250.0,753.7,1968.7,2971.2,213.9,78.1,19.1
0.081288,808.0,87.0,1932.2,108.1,2931.0,231.5,756,1962.7,2973,214.2,77.9,19.3
0.083288,811.9,86.4,1924.4,100.5,2955.9,232.9,758.2,1956.7,2974.7,214.4,77.6,19.5
0.085288,816.1,88.0,1921.7,97.1,2979.9,265.7,760.3,1950.7,2976.3,214.7,77.4,19.7
0.087288,819.9,91.5,1921.6,97.7,3009.6,338.5,762.2,1944.6,2977.8,215,77.1,19.9
0.089288,823.0,95.0,1922.6,98.9,3048.4,453.5,764.1,1938.6,2979.3,215.3,76.9,20
0.091288,825.0,97.3,1924.0,99.0,3084.5,583.5,765.8,1932.7,2980.6,215.6,76.6,20.2
0.093288,825.7,99.1,1924.9,101.6,3084.2,660.1,767.3,1926.7,2981.8,215.9,76.3,20.3
0.095288,824.7,101.8,1924.4,109.9,3041.5,650.2,768.7,1920.9,2982.9,216.2,76,20.4
0.097288,822.9,104.9,1922.2,121.5,2993.0,602.4,769.9,1915.1,2983.9,216.5,75.7,20.4
0.099288,821.0,107.6,1918.8,131.4,2961.9,561.2,770.9,1909.4,2984.8,216.8,75.4,20.6
0.101288,819.6,109.0,1915.1,135.6,2952.1,530.7,771.7,1903.8,2985.5,217.1,75,20.8
0.103288,818.7,108.8,1911.3,133.1,2962.6,503.3,772.4,1898.3,2986.1,217.4,74.7,21
0.105288,817.9,107.9,1906.6,127.3,2987.7,476.1,772.8,1893,2986.5,217.8,74.4,21.1
0.107288,816.0,108.2,1900.2,124.2,3017.9,447.7,773.1,1887.7,2986.8,218.1,74.1,21.1
0.109288,811.9,111.9,1891.9,128.1,3041.6,411.1,773.2,1882.6,2986.9,218.4,73.8,20.7
0.111288,805.4,118.4,1881.6,140.3,3048.3,356.6,773.1,1877.7,2986.9,218.8,73.5,19.9
0.113288,797.0,126.7,1869.0,159.4,3041.1,290.7,772.7,1872.9,2986.7,219.1,73.2,18.9
0.115288,787.5,136.9,1855.2,182.2,3031.1,230.7,772.2,1868.3,2986.3,219.5,72.9,17.9
0.117288,777.4,148.5,1844.3,203.0,3024.2,186.6,771.5,1863.8,2985.8,219.8,72.7,17.1
0.119288,767.2,160.6,1842.0,218.0,3020.6,160.0,770.6,1859.5,2985.2,220.2,72.5,16.7
0.121288,756.7,172.2,1848.3,230.7,3018.9,147.4,769.4,1855.4,2984.4,220.5,72.3,16.5
0.123288,746.4,182.2,1857.0,244.7,3017.3,142.7,768.2,1851.5,2983.4,220.9,72.1,16.6
0.125288,737.2,189.8,1861.8,257.6,3014.4,139.9,766.7,1847.8,2982.3,221.2,72,16.7
0.127288,730.5,194.7,1861.1,262.0,3009.6,136.4,765,1844.3,2981,221.6,71.9,16.9
0.129288,727.1,196.5,1860.9,252.6,3002.2,135.7,763.2,1840.9,2979.6,221.9,71.9,17.1
0.131288,726.5,195.8,1865.9,234.9,2990.2,141.3,761.2,1837.8,2978,222.3,71.9,17.4
0.133288,727.5,193.4,1872.4,217.9,2971.5,149.1,759.1,1834.8,2976.3,222.6,71.9,17.8
0.135288,728.8,191.1,1873.9,206.6,2947.2,152.1,756.8,1832,2974.5,223,72,18.1
0.137288,728.5,190.5,1868.2,201.6,2924.6,150.9,754.4,1829.4,2972.5,223.3,72,18.4
0.139288,725.9,192.3,1858.1,200.1,2912.3,152.8,751.9,1827,2970.4,223.7,72,18.6
0.141288,722.3,195.9,1849.5,199.8,2917.3,162.0,749.3,1824.8,2968.2,224,72,18.8
0.143288,720.2,200.3,1845.1,198.8,2942.2,173.0,746.6,1822.8,2965.9,224.3,72.1,18.9
0.145288,719.7,205.3,1842.2,193.8,2976.2,174.7,743.7,1820.9,2963.5,224.7,72.1,19
0.147288,717.3,211.9,1839.1,186.4,2998.6,167.8,740.9,1819.2,2960.9,225,72.1,19
0.149288,710.9,220.8,1837.7,182.0,3001.0,162.1,737.9,1817.6,2958.3,225.3,72.1,19.1
0.151288,703.6,228.4,1837.3,184.9,2991.1,158.6,734.9,1816.2,2955.6,225.6,72.1,19.1
0.153288,698.9,234.1,1835.6,202.0,2978.8,153.9,731.9,1815,2952.8,225.9,72.1,19
0.155288,695.8,242.1,1831.9,244.9,2971.0,150.0,728.9,1813.9,2950,226.2,72.1,19
0.157288,692.1,254.8,1827.4,316.5,2969.2,151.7,725.8,1812.9,2947.1,226.5,72,19.1
0.159288,688.0,267.9,1823.4,384.8,2969.9,160.2,722.8,1812,2944.1,226.8,71.9,19.4
0.161288,684.2,274.6,1819.1,406.6,2968.5,171.8,719.8,1811.2,2941.1,227.1,71.8,19.8
0.163288,680.8,273.5,1813.9,392.9,2964.0,185.4,716.8,1810.5,2938.1,227.3,71.7,20.3
0.165288,678.5,268.1,1810.9,370.7,2962.0,200.2,713.9,1809.9,2935.1,227.6,71.6,20.8
0.167288,678.2,262.3,1811.3,345.7,2968.3,211.8,711.1,1809.3,2932,227.9,71.5,21.2
0.169288,680.1,258.4,1811.4,317.5,2978.1,215.6,708.3,1808.8,2928.9,228.1,71.5,21.2
0.171288,683.3,257.0,1808.8,293.3,2978.5,211.6,705.6,1808.4,2925.8,228.4,71.4,21.1
0.173288,683.9,258.6,1805.6,283.1,2962.5,205.3,703,1808,2922.7,228.6,71.3,20.7
0.175288,680.6,261.9,1805.1,283.0,2934.6,199.6,700.5,1807.6,2919.6,228.9,71.3,20.3
0.177288,675.8,263.6,1808.3,278.9,2902.4,194.0,698.1,1807.2,2916.5,229.1,71.3,19.9
0.179288,671.5,261.4,1812.8,263.9,2869.2,183.7,695.9,1806.8,2913.4,229.3,71.3,19.6
0.181288,668.0,254.8,1814.1,245.0,2838.9,164.0,693.8,1806.3,2910.4,229.5,71.3,19.3
0.183288,664.6,246.5,1808.8,232.5,2817.9,138.2,691.8,1805.9,2907.4,229.8,71.4,18.9
0.185288,660.9,240.4,1795.3,232.0,2809.3,115.9,690,1805.4,2904.5,230,71.5,18.6
0.187288,655.6,237.6,1774.4,245.1,2811.5,103.9,688.4,1804.8,2901.6,230.2,71.5,18.5
0.189288,649.4,236.6,1751.0,268.4,2822.4,102.4,686.9,1804.1,2898.7,230.4,71.6,18.6
0.191288,644.3,235.0,1731.6,295.4,2839.5,108.5,685.6,1803.4,2895.9,230.6,71.6,19
0.193288,642.0,231.0,1718.6,317.6,2857.6,118.1,684.5,1802.5,2893.1,230.7,71.6,19.6
0.195288,644.1,227.5,1713.0,324.5,2871.4,126.5,683.6,1801.6,2890.5,230.9,71.6,20.3
0.197288,650.5,227.5,1714.7,315.6,2879.0,132.5,682.8,1800.5,2887.8,231.1,71.6,20.8
0.199288,658.0,229.6,1720.3,301.2,2880.5,139.8,682.2,1799.3,2885.3,231.2,71.6,21.2
0.201288,665.3,233.2,1727.8,289.1,2878.2,147.8,681.8,1798,2882.8,231.4,71.5,21.6
0.203288,673.9,240.4,1735.2,279.2,2875.5,148.8,681.6,1796.5,2880.3,231.5,71.4,21.9
0.205288,684.3,250.7,1738.5,271.4,2874.9,141.5,681.6,1794.8,2878,231.7,71.3,22.1
0.207288,692.9,261.0,1736.7,268.4,2876.1,134.7,681.8,1793,2875.7,231.8,71.2,22.2
0.209288,695.5,269.7,1733.8,271.7,2877.4,135.4,682.1,1790.9,2873.4,231.9,71.2,22.1
0.211288,693.5,277.1,1733.9,278.1,2877.8,140.1,682.6,1788.7,2871.3,232.1,71.1,21.8
0.213288,692.5,285.4,1737.5,283.7,2877.3,140.1,683.3,1786.3,2869.2,232.2,71.1,21.4
0.215288,697.1,296.0,1743.7,285.7,2876.0,134.5,684.1,1783.7,2867.2,232.3,71.1,20.9
0.217288,707.4,307.2,1750.9,281.2,2872.4,129.4,685.1,1781,2865.2,232.4,71.1,20.6
0.219288,718.4,315.5,1755.2,272.8,2864.9,130.4,686.2,1778,2863.3,232.5,71.1,20.5
0.221288,725.9,321.3,1756.1,266.3,2853.2,137.5,687.4,1774.7,2861.5,232.6,71.2,20.6
0.223288,731.2,325.7,1758.0,259.6,2841.7,144.5,688.8,1771.3,2859.8,232.7,71.3,20.8
0.225288,738.0,327.8,1766.2,246.6,2838.7,147.6,690.3,1767.7,2858,232.7,71.4,21
0.227288,746.3,327.9,1779.1,228.8,2845.7,151.2,692,1763.9,2856.4,232.8,71.4,21.2
0.229288,753.1,329.0,1791.1,213.8,2857.3,159.9,693.7,1759.8,2854.8,232.9,71.5,21.3
0.231288,757.0,333.3,1799.2,206.2,2870.2,172.9,695.5,1755.6,2853.2,232.9,71.5,21.3
0.233288,758.0,339.6,1803.0,206.9,2884.4,183.7,697.3,1751.1,2851.7,233,71.5,21.3
0.235288,757.2,344.7,1802.7,213.8,2897.6,188.2,699.2,1746.4,2850.3,233,71.5,21.3
0.237288,756.7,346.1,1798.6,221.6,2904.6,189.7,701.2,1741.6,2848.9,233,71.5,21.3
0.239288,759.1,343.0,1791.7,221.5,2902.2,192.7,703.2,1736.5,2847.5,233.1,71.5,21.5
0.241288,764.8,335.9,1784.3,209.5,2890.1,197.4,705.3,1731.3,2846.1,233.1,71.4,21.7
0.243288,771.7,326.7,1778.9,193.3,2870.5,199.8,707.3,1725.9,2844.8,233.1,71.4,22
0.245288,774.9,321.9,1775.6,185.9,2848.3,193.7,709.3,1720.3,2843.5,233.1,71.4,22.4
0.247288,770.1,327.1,1771.8,196.1,2830.4,178.1,711.4,1714.5,2842.2,233.1,71.4,22.6
0.249288,759.7,339.0,1765.1,221.9,2822.5,157.5,713.4,1708.7,2841,233.1,71.4,22.7
0.251288,751.4,351.0,1756.4,253.5,2824.0,138.2,715.3,1702.7,2839.8,233.1,71.5,22.7
0.253288,748.1,360.0,1748.4,280.4,2829.9,125.8,717.2,1696.5,2838.6,233.1,71.5,22.6
0.255288,746.6,365.0,1742.4,296.0,2835.5,121.7,719,1690.3,2837.4,233,71.6,22.5
0.257288,746.0,366.4,1739.4,298.5,2838.0,122.7,720.8,1683.9,2836.2,233,71.6,22.4
0.259288,746.8,365.2,1738.1,292.1,2837.4,124.2,722.4,1677.5,2835,233,71.7,22.3
0.261288,748.7,362.5,1736.5,283.1,2836.1,123.2,724,1671,2833.9,232.9,71.7,22.3
0.263288,752.6,359.5,1735.1,272.9,2835.8,118.9,725.4,1664.5,2832.7,232.9,71.7,22.4
0.265288,760.4,357.3,1736.6,260.2,2836.6,113.1,726.8,1657.9,2831.6,232.9,71.7,22.4
0.267288,771.5,356.8,1741.1,248.8,2836.8,110.4,728,1651.3,2830.5,232.8,71.6,22.4
0.269288,779.7,362.7,1744.3,247.8,2835.3,115.1,729,1644.7,2829.4,232.8,71.6,22.4
0.271288,779.0,378.3,1742.5,259.6,2832.9,127.0,729.9,1638.1,2828.3,232.7,71.6,22.3
0.273288,771.7,394.3,1736.5,271.6,2830.8,139.1,730.6,1631.6,2827.2,232.6,71.5,22.1
0.275288,761.7,403.3,1727.1,276.4,2829.4,146.9,731.2,1625.1,2826.2,232.6,71.5,22
0.277288,742.2,405.0,1708.2,285.5,2828.3,155.2,731.6,1618.8,2825.2,232.5,71.4,21.9
0.279288,710.2,390.9,1671.5,305.2,2827.6,167.8,731.9,1612.4,2824.1,232.5,71.4,22
0.281288,678.6,359.7,1615.8,321.9,2829.5,178.8,731.9,1606.3,2823.2,232.4,71.4,22.2
0.283288,658.0,332.1,1554.8,321.1,2837.3,180.1,731.8,1600.2,2822.2,232.3,71.4,22.5
0.285288,646.4,320.8,1504.7,310.7,2850.6,173.2,731.5,1594.3,2821.3,232.3,71.4,22.8
0.287288,641.3,326.3,1474.4,305.0,2862.8,166.0,731,1588.6,2820.4,232.2,71.3,22.8
0.289288,641.9,345.5,1466.3,311.2,2864.6,161.9,730.3,1583,2819.6,232.1,71.3,22.6
0.291288,647.4,371.6,1476.1,325.1,2850.8,160.0,729.5,1577.7,2818.8,232.1,71.3,22
0.293288,655.3,397.4,1494.3,335.7,2827.1,156.4,728.4,1572.6,2818,232,71.3,21.3
0.295288,661.7,417.3,1509.1,337.6,2803.7,150.5,727.2,1567.8,2817.4,231.9,71.2,20.5
0.297288,661.9,423.8,1512.5,333.9,2785.5,145.5,725.8,1563.2,2816.8,231.9,71.2,20
0.299288,657.3,417.5,1506.4,331.3,2771.6,142.8,724.2,1558.9,2816.2,231.8,71.2,19.8
0.301288,653.9,410.9,1497.2,336.6,2762.6,140.9,722.4,1554.9,2815.8,231.7,71.1,19.9
0.303288,655.8,417.7,1490.6,353.0,2762.6,137.4,720.5,1551.2,2815.4,231.7,71.1,20.2
0.305288,663.4,441.2,1490.0,376.8,2772.7,131.2,718.4,1547.8,2815.1,231.6,71,20.5
0.307288,671.2,467.2,1493.6,396.5,2787.8,127.6,716.2,1544.8,2814.9,231.5,71,20.7
0.309288,666.9,465.8,1492.2,393.9,2802.2,134.4,713.8,1542.2,2814.9,231.4,71,20.7
0.311288,652.5,428.4,1483.5,363.6,2813.2,149.8,711.2,1539.9,2814.9,231.3,71,20.5
0.313288,641.9,385.0,1475.1,327.5,2820.9,159.8,708.6,1538,2815.1,231.2,71,20.2
0.315288,638.0,356.2,1469.8,304.9,2826.2,160.1,705.8,1536.5,2815.4,231.2,71,19.9
0.317288,640.3,346.6,1470.3,302.2,2827.3,156.6,702.9,1535.5,2815.8,231,71,19.7
0.319288,649.3,359.4,1478.7,323.7,2821.9,151.5,699.9,1534.8,2816.4,230.9,71,19.6
0.321288,660.3,382.3,1486.9,354.9,2812.9,144.5,696.8,1534.6,2817.2,230.8,71,19.6
0.323288,666.7,402.1,1483.3,377.7,2805.6,135.3,693.7,1534.8,2818,230.7,71,19.7
0.325288,671.1,425.8,1473.7,388.2,2802.4,118.3,690.4,1535.4,2819.1,230.6,71,19.9
0.327288,684.8,467.2,1475.0,397.8,2802.3,95.1,687.1,1536.5,2820.3,230.4,71,20
0.329288,703.8,505.7,1486.9,406.8,2803.4,79.9,683.8,1538.1,2821.7,230.3,71,20.1
0.331288,718.3,523.5,1507.3,415.8,2805.1,76.3,680.4,1540.1,2823.3,230.1,71,20.2
0.333288,725.7,522.8,1532.0,422.4,2807.7,79.7,677,1542.5,2825.1,230,71,20.3
0.335288,722.7,510.1,1546.9,424.0,2810.3,85.7,673.6,1545.4,2827,229.8,71,20.3
0.337288,709.9,492.0,1540.9,423.1,2810.1,91.5,670.1,1548.8,2829.2,229.6,70.9,20.3
0.339288,692.8,471.2,1518.2,418.0,2805.8,96.2,666.7,1552.6,2831.5,229.4,70.9,20.3
0.341288,679.2,452.3,1499.3,410.0,2799.4,100.8,663.3,1556.8,2834,229.2,70.8,20.1
0.343288,672.6,438.2,1501.3,408.5,2794.5,109.5,659.9,1561.5,2836.8,229,70.8,19.9
0.345288,671.9,428.2,1524.0,416.4,2794.2,127.2,656.6,1566.7,2839.7,228.8,70.7,19.7
0.347288,675.2,422.4,1557.9,429.6,2801.5,155.7,653.3,1572.2,2842.8,228.6,70.6,19.5
0.349288,678.6,414.6,1593.6,438.8,2817.3,193.1,650.1,1578.2,2846.2,228.3,70.5,19.3
0.351288,676.9,397.5,1624.5,434.7,2838.7,233.1,646.9,1584.6,2849.7,228.1,70.5,19.2
0.353288,669.3,371.9,1645.8,420.2,2861.4,265.1,643.9,1591.4,2853.4,227.9,70.4,19.1
0.355288,658.4,343.2,1655.4,407.8,2881.3,281.0,640.9,1598.6,2857.3,227.6,70.3,19
0.357288,648.7,317.6,1657.6,405.0,2898.9,285.1,638,1606.1,2861.5,227.4,70.2,19
0.359288,645.2,300.0,1671.3,398.0,2921.5,293.0,635.1,1614,2865.8,227.1,70.1,18.8
0.361288,648.6,289.0,1709.8,359.1,2955.2,306.5,632.4,1622.3,2870.2,226.8,70,18.7
0.363288,653.3,276.6,1750.4,294.0,2990.6,305.2,629.9,1630.8,2874.9,226.6,70,18.5
0.365288,653.6,257.9,1774.2,238.5,3010.0,280.0,627.4,1639.7,2879.7,226.3,70,18.3
0.367288,648.8,235.4,1781.9,208.2,3007.4,242.8,625,1648.9,2884.7,226,69.9,18.3
0.369288,642.5,215.2,1778.6,201.0,2990.4,207.5,622.8,1658.3,2889.9,225.7,69.9,18.3
0.371288,637.9,201.2,1769.1,213.5,2968.7,182.2,620.7,1668,2895.1,225.5,69.9,18.4
0.373288,635.4,194.6,1758.1,248.9,2948.6,171.8,618.7,1677.9,2900.6,225.2,69.9,18.6
0.375288,635.1,196.2,1747.8,305.1,2930.8,175.5,616.9,1688,2906.1,224.9,70,18.8
0.377288,636.4,203.5,1738.9,352.1,2914.7,186.3,615.2,1698.3,2911.8,224.6,70,19
0.379288,636.9,210.0,1731.6,357.2,2903.5,197.8,613.6,1708.7,2917.5,224.3,70,19.2
0.381288,635.3,212.8,1726.5,331.5,2901.5,206.3,612.2,1719.2,2923.4,224,70.1,19.5
0.383288,632.9,214.1,1725.8,297.6,2908.9,206.9,610.9,1729.9,2929.3,223.7,70.1,19.8
0.385288,629.6,211.5,1727.8,267.5,2920.7,203.3,609.7,1740.6,2935.3,223.3,70.1,20
0.387288,625.1,202.5,1731.5,245.9,2930.2,200.0,608.6,1751.4,2941.3,223,70.1,20.2
0.389288,621.0,191.2,1737.3,232.0,2931.6,191.0,607.7,1762.2,2947.4,222.7,70.1,20.2
0.391288,618.5,183.3,1743.6,224.8,2923.9,172.0,606.9,1773,2953.5,222.4,70.1,20
0.393288,618.3,180.2,1750.6,223.7,2912.6,149.2,606.2,1783.8,2959.6,222,70.1,19.8
0.395288,620.5,179.9,1761.3,228.1,2903.4,132.4,605.6,1794.6,2965.7,221.7,70.2,19.5
0.397288,625.1,179.7,1777.1,237.6,2899.3,126.1,605.1,1805.2,2971.8,221.3,70.2,19.3
0.399288,630.9,179.5,1795.9,253.5,2901.7,128.8,604.7,1815.7,2977.8,220.9,70.3,19
0.401288,636.9,181.2,1815.1,274.6,2912.0,136.3,604.4,1826.1,2983.8,220.5,70.4,18.8
0.403288,643.1,186.1,1834.9,290.2,2927.8,143.6,604.2,1836.4,2989.7,220.1,70.5,18.5
0.405288,649.0,192.2,1853.9,288.8,2944.8,149.1,604.1,1846.4,2995.5,219.8,70.5,18.2
0.407288,653.6,195.7,1870.1,272.8,2958.4,150.6,604.1,1856.3,3001.1,219.3,70.6,18
0.409288,657.0,193.2,1883.0,257.5,2966.0,146.1,604.1,1865.9,3006.7,218.9,70.7,18
0.411288,657.9,183.8,1894.4,257.3,2970.1,138.5,604.2,1875.2,3012.2,218.5,70.7,18
0.413288,654.6,171.3,1906.4,273.8,2974.8,133.9,604.3,1884.3,3017.4,218.1,70.8,18.1
0.415288,646.7,159.1,1919.3,296.2,2982.0,138.1,604.5,1893,3022.6,217.6,70.9,18.3
0.417288,635.5,148.0,1931.8,309.3,2993.6,154.3,604.7,1901.4,3027.5,217.2,71,18.5
0.419288,625.1,138.5,1942.7,304.1,3012.8,182.3,605,1909.5,3032.2,216.7,71,18.9
0.421288,618.5,132.1,1948.9,286.1,3039.4,231.9,605.3,1917.2,3036.7,216.3,71.1,19.6
0.423288,614.3,128.1,1950.3,275.4,3071.1,326.7,605.6,1924.5,3041,215.8,71.2,20.5
0.425288,610.8,124.9,1950.6,275.2,3094.4,447.5,605.9,1931.3,3045.1,215.4,71.2,21.1
0.427288,608.6,122.0,1950.4,268.5,3095.1,493.7,606.2,1937.8,3048.9,214.9,71.3,21.4
0.429288,608.3,119.7,1947.6,241.5,3090.7,416.7,606.5,1943.7,3052.5,214.5,71.4,21
0.431288,609.1,118.2,1940.0,200.6,3088.7,300.6,606.8,1949.3,3055.8,214,71.4,19.8
0.433288,608.7,118.0,1930.1,161.7,3081.8,211.1,607.1,1954.3,3058.8,213.6,71.4,18.3
0.435288,604.5,119.4,1923.3,137.1,3071.2,159.4,607.4,1958.8,3061.5,213.1,71.4,16.6
0.437288,594.4,122.2,1922.2,128.0,3064.1,133.1,607.7,1962.9,3063.9,212.7,71.4,15
0.439288,579.2,125.0,1924.4,126.3,3065.7,118.7,607.9,1966.4,3066,212.3,71.3,13.9
0.441288,562.0,127.5,1926.2,123.0,3076.5,109.9,608.1,1969.4,3067.8,211.9,71.2,12.8
0.443288,545.6,131.3,1926.6,115.2,3092.5,105.6,608.3,1971.9,3069.2,211.5,71.1,11.8
0.445288,528.7,137.6,1926.5,106.2,3108.9,106.6,608.4,1973.8,3070.4,211.1,70.9,11
0.447288,509.3,146.5,1927.0,103.8,3113.8,114.2,608.5,1975.1,3071.2,210.7,70.7,10.3
0.449288,481.5,160.4,1926.9,112.9,3098.9,124.1,608.6,1976,3071.7,210.4,70.4,9.9
0.451288,444.2,176.7,1923.3,130.4,3077.1,128.9,608.6,1976.3,3071.9,210.1,70.3,9.7
