time,f1,b1,f2,b2,f3,b3,f1p,f2p,f3p,f0,intensity,harmonicity
0.025426,480.8,9.0,2474.8,106.4,3122.1,138.4,485.1,2524.4,3116,161.9,78.5,21.6
0.027426,481.3,8.5,2487.8,118.0,3116.8,145.2,485,2526,3116.7,161.8,78.6,22.2
0.029426,481.9,8.0,2502.7,129.1,3110.7,158.3,484.9,2528.7,3117.8,161.8,78.7,22.1
0.031426,482.4,7.7,2520.9,138.9,3108.6,172.8,484.6,2532.5,3119.4,161.7,78.9,21.7
0.033426,482.8,7.7,2542.8,145.4,3116.9,181.5,484.3,2537.2,3121.4,161.6,79,21.2
0.035426,483.2,7.8,2560.6,145.6,3130.7,177.1,484,2542.9,3123.8,161.5,79.1,20.6
0.037426,483.6,7.8,2569.1,141.3,3140.0,164.8,483.6,2549.5,3126.7,161.4,79.3,20.1
0.039426,483.6,7.8,2569.1,135.5,3141.0,155.1,483.1,2556.8,3130,161.3,79.5,19.7
0.041426,483.2,7.6,2568.7,130.1,3136.5,151.8,482.7,2565,3133.6,161.2,79.7,19.3
0.043426,482.7,7.6,2573.7,126.2,3131.3,151.7,482.2,2573.7,3137.6,161.1,80,19
0.045426,482.1,7.6,2584.3,124.6,3130.9,149.1,481.7,2583.1,3142,161,80.2,18.7
0.047426,481.6,7.6,2600.6,123.8,3135.9,140.8,481.2,2592.9,3146.6,160.9,80.5,18.6
0.049426,481.4,7.7,2619.3,122.4,3143.6,130.7,480.8,2603.1,3151.6,160.8,80.7,18.8
0.051426,481.3,7.6,2634.4,120.4,3152.4,123.8,480.3,2613.5,3156.9,160.7,80.9,19.2
0.053426,481.5,7.4,2645.3,119.5,3163.3,121.7,479.9,2624.2,3162.3,160.6,81.1,19.6
0.055426,481.9,7.2,2653.6,120.3,3174.4,125.1,479.6,2634.8,3168,160.5,81.3,20
0.057426,482.3,6.9,2662.3,121.7,3182.1,133.4,479.2,2645.5,3173.8,160.4,81.5,20.3
0.059426,482.3,6.5,2670.2,122.7,3181.9,145.7,479,2656,3179.8,160.3,81.6,20.3
0.061426,482.1,6.2,2675.3,122.7,3175.9,157.6,478.8,2666.3,3185.8,160.2,81.8,20.2
0.063426,481.8,6.1,2679.7,120.7,3175.0,162.4,478.7,2676.3,3191.9,160.1,82,20
0.065426,481.6,6.3,2685.9,116.4,3186.7,157.1,478.6,2685.9,3198,160,82.2,19.8
0.067426,481.3,6.5,2693.2,112.5,3204.0,146.2,478.6,2695.1,3204,159.9,82.4,19.5
0.069426,481.0,6.6,2699.4,111.7,3217.4,138.7,478.6,2703.7,3209.9,159.8,82.6,19.1
0.071426,480.7,6.5,2704.7,113.8,3226.6,139.5,478.7,2711.7,3215.7,159.6,82.7,18.6
0.073426,480.3,6.3,2711.4,117.2,3235.4,149.0,478.9,2719.1,3221.3,159.5,82.9,18.1
0.075426,480.1,6.1,2719.5,119.9,3243.4,162.2,479.1,2725.8,3226.7,159.4,83,17.7
0.077426,479.7,5.9,2726.8,122.9,3249.1,173.2,479.3,2731.8,3231.7,159.3,83.1,17.6
0.079426,479.3,5.8,2731.2,128.1,3250.6,177.3,479.6,2737.1,3236.4,159.2,83.2,17.8
0.081426,478.9,5.8,2734.7,134.9,3249.3,174.8,479.9,2741.6,3240.8,159.1,83.2,18.2
0.083426,478.5,5.9,2741.4,141.3,3247.7,169.3,480.2,2745.4,3244.8,159,83.3,18.8
0.085426,478.3,6.1,2750.7,145.6,3247.3,164.5,480.4,2748.4,3248.3,158.9,83.4,19.4
0.087426,478.2,6.3,2758.4,147.7,3247.5,161.8,480.7,2750.7,3251.3,158.8,83.4,19.9
0.089426,478.3,6.6,2759.7,146.5,3248.5,162.1,480.9,2752.3,3253.8,158.7,83.4,20.5
0.091426,478.5,6.8,2756.4,141.8,3251.4,165.7,481.1,2753.2,3255.8,158.6,83.5,21.2
0.093426,478.7,7.0,2751.7,134.7,3255.8,170.6,481.2,2753.4,3257.2,158.5,83.5,21.8
0.095426,478.8,7.2,2746.2,128.3,3258.8,173.6,481.3,2753,3258.1,158.4,83.5,22.3
0.097426,478.9,7.4,2738.5,123.4,3259.5,173.8,481.3,2752,3258.4,158.3,83.5,22.5
0.099426,478.8,7.7,2731.1,120.5,3258.4,172.5,481.3,2750.5,3258.1,158.2,83.6,22.5
0.101426,478.8,7.9,2727.9,120.4,3256.1,171.4,481.1,2748.5,3257.3,158.1,83.6,22.3
0.103426,478.9,8.1,2729.3,124.0,3252.7,171.0,480.9,2746,3255.9,158,83.6,21.9
0.105426,478.8,8.3,2732.9,130.4,3248.4,171.7,480.6,2743.1,3253.9,157.9,83.6,21.4
0.107426,478.8,8.5,2736.2,137.2,3242.2,172.7,480.2,2739.9,3251.4,157.8,83.6,20.9
0.109426,478.6,8.6,2736.9,141.7,3234.7,172.4,479.8,2736.4,3248.5,157.6,83.5,20.1
0.111426,478.3,8.8,2734.4,143.3,3228.2,169.3,479.3,2732.6,3245.1,157.5,83.5,19.2
0.113426,478.0,9.0,2729.3,142.9,3223.8,163.7,478.7,2728.5,3241.2,157.4,83.5,18.3
0.115426,477.7,9.1,2723.4,140.8,3221.8,158.8,478,2724.3,3237,157.2,83.4,17.4
0.117426,477.4,9.1,2717.1,136.8,3220.4,156.0,477.4,2719.9,3232.4,157.1,83.3,16.9
0.119426,477.0,9.1,2711.8,131.3,3218.4,155.8,476.6,2715.4,3227.5,157,83.3,16.8
0.121426,476.7,9.4,2708.7,125.6,3215.7,157.4,475.9,2710.8,3222.3,156.8,83.1,16.9
0.123426,476.2,9.8,2707.9,120.9,3212.3,160.5,475.2,2706.2,3217,156.7,83,17.2
0.125426,475.6,10.4,2707.8,118.9,3208.4,163.1,474.4,2701.4,3211.5,156.5,82.8,17.4
0.127426,475.3,11.1,2707.0,119.7,3204.5,165.8,473.7,2696.7,3205.9,156.4,82.7,17.5
0.129426,475.1,11.9,2705.7,122.7,3201.7,170.4,473.1,2691.9,3200.3,156.2,82.4,17.3
0.131426,475.0,12.8,2704.2,125.3,3199.6,176.1,472.5,2687,3194.6,156.1,82.2,17
0.133426,474.8,14.0,2701.2,124.2,3197.8,178.4,472,2682.2,3189,155.9,81.9,16.7
0.135426,474.6,15.3,2696.1,117.9,3196.9,174.6,471.5,2677.3,3183.5,155.8,81.6,16.3
0.137426,474.3,16.9,2689.7,109.7,3196.1,166.9,471.2,2672.4,3178,155.6,81.3,15.8
0.139426,474.0,18.6,2683.3,104.8,3194.0,159.7,471,2667.4,3172.7,155.4,81,15.2
0.141426,473.8,20.0,2677.2,104.5,3192.0,155.7,470.9,2662.4,3167.6,155.3,80.7,14.4
0.143426,473.6,21.2,2671.2,107.7,3190.5,154.6,470.9,2657.3,3162.7,155.1,80.3,13.7
0.145426,473.4,22.6,2665.8,113.2,3187.4,154.7,471.1,2652.2,3158,155,79.9,13.2
0.147426,473.4,24.5,2659.4,121.4,3179.6,154.3,471.4,2647,3153.4,154.8,79.4,13
0.149426,473.4,27.3,2648.8,132.4,3167.1,152.6,471.8,2641.7,3149.1,154.7,79,13.6
0.151426,473.1,31.5,2633.0,143.2,3153.6,149.7,472.4,2636.2,3145,154.6,78.5,14.7
0.153426,473.0,37.1,2614.2,151.0,3141.8,148.4,473.1,2630.7,3141.1,154.4,78,16
0.155426,473.4,43.1,2598.9,154.9,3132.9,152.8,473.9,2625,3137.4,154.3,77.5,17
0.157426,474.2,49.9,2589.5,156.9,3125.0,163.7,474.8,2619.2,3133.9,154.1,77,17.3
0.159426,475.3,56.7,2586.2,158.2,3118.3,175.9,475.8,2613.3,3130.5,154,76.6,16.5
0.161426,476.6,62.1,2586.3,159.7,3113.3,182.7,476.9,2607.2,3127.2,153.9,76.3,15
0.163426,477.8,66.0,2586.5,160.8,3107.8,180.9,478.1,2601,3123.9,153.8,76.1,13.2
0.165426,478.5,67.0,2583.5,161.6,3101.7,172.3,479.3,2594.6,3120.7,153.6,76,11.7
0.167426,478.9,64.2,2577.3,164.3,3096.1,162.8,480.5,2588.1,3117.5,153.5,76,11.2
0.169426,479.2,59.7,2571.0,170.5,3092.3,158.3,481.7,2581.5,3114.2,153.4,76.2,11.9
0.171426,479.6,55.6,2566.6,178.0,3090.8,158.7,482.9,2574.8,3110.9,153.3,76.4,13.6
0.173426,480.2,52.3,2562.0,184.0,3091.9,161.6,484.1,2567.9,3107.4,153.2,76.6,15.6
0.175426,480.8,49.9,2556.5,186.8,3095.5,166.0,485.2,2561,3103.7,153.1,76.8,17.3
0.177426,481.8,48.3,2550.9,186.3,3097.9,170.2,486.2,2554,3099.9,153,77,18.3
0.179426,482.9,46.6,2546.9,183.6,3093.1,171.8,487.1,2547,3095.7,152.9,77.2,18.3
0.181426,483.4,45.2,2545.0,181.2,3081.3,170.7,487.9,2540,3091.4,152.8,77.2,17.7
0.183426,483.5,44.7,2543.3,177.9,3067.6,167.1,488.6,2532.9,3086.7,152.7,77.2,16.7
0.185426,483.9,44.9,2539.6,170.3,3060.0,163.1,489.1,2525.9,3081.7,152.6,77.2,15.8
0.187426,484.8,45.8,2532.6,157.1,3059.5,160.4,489.4,2518.9,3076.4,152.5,77.1,15.2
0.189426,485.8,47.4,2523.1,141.1,3062.1,157.7,489.6,2512,3070.7,152.4,77,15.1
0.191426,486.8,49.4,2512.5,126.4,3063.1,153.5,489.6,2505.2,3064.8,152.3,76.8,15.1
0.193426,488.4,51.4,2501.8,113.4,3062.9,149.8,489.4,2498.5,3058.5,152.2,76.6,15.3
0.195426,489.8,54.3,2493.4,102.7,3063.0,148.9,489,2492,3051.8,152.1,76.3,15.4
0.197426,490.8,58.4,2486.1,93.6,3062.9,149.5,488.5,2485.6,3045,152.1,76,15.6
0.199426,491.8,61.6,2480.2,87.7,3063.9,150.8,487.8,2479.4,3037.8,152,75.8,15.6
0.201426,492.3,64.0,2477.0,86.6,3066.3,153.6,486.9,2473.5,3030.5,151.9,75.5,15.7
0.203426,492.2,67.4,2476.3,90.4,3065.8,158.0,485.8,2467.7,3023,151.9,75.2,15.8
0.205426,491.7,70.4,2475.6,96.1,3057.7,162.7,484.7,2462.2,3015.3,151.8,75.1,15.8
0.207426,491.3,69.8,2471.9,99.7,3040.9,166.8,483.4,2457,3007.6,151.7,74.9,15.9
0.209426,490.8,64.2,2464.4,98.5,3018.2,166.1,482,2452.1,2999.9,151.7,74.9,16
0.211426,490.0,55.6,2454.5,92.4,2996.7,158.7,480.5,2447.4,2992.3,151.6,75,16.1
0.213426,488.4,46.7,2444.6,84.3,2979.7,151.0,479,2443.1,2984.8,151.6,75.1,16.3
0.215426,485.6,40.1,2437.6,78.3,2967.1,149.8,477.5,2439,2977.5,151.5,75.3,16.4
0.217426,482.2,34.9,2432.7,73.9,2956.3,154.7,476,2435.3,2970.4,151.5,75.5,16.5
0.219426,479.1,30.3,2428.5,69.7,2949.4,161.4,474.5,2431.8,2963.7,151.5,75.6,16.5
0.221426,475.9,26.2,2424.7,65.1,2947.0,164.2,473,2428.7,2957.4,151.4,75.7,16.7
0.223426,472.4,22.7,2421.3,60.4,2946.3,159.4,471.7,2426,2951.6,151.4,75.8,16.7
0.225426,469.4,20.0,2418.0,56.3,2944.4,149.9,470.4,2423.5,2946.2,151.4,75.9,16.7
0.227426,466.6,17.7,2414.9,52.5,2940.6,139.8,469.3,2421.4,2941.5,151.4,75.9,16.5
0.229426,463.4,16.0,2413.7,49.5,2937.2,132.3,468.2,2419.6,2937.4,151.4,75.9,15.9
0.231426,460.9,14.5,2414.2,47.2,2935.4,130.4,467.4,2418.1,2934,151.4,76,15.1
0.233426,459.5,12.7,2414.3,45.5,2932.2,138.9,466.7,2417,2931.3,151.3,76,14.1
0.235426,458.6,10.8,2413.2,45.6,2924.7,164.1,466.2,2416.1,2929.4,151.3,76.1,13.4
0.237426,457.6,9.2,2411.5,48.2,2911.1,213.2,465.9,2415.6,2928.2,151.3,76.2,13.3
0.239426,456.5,8.0,2409.1,52.2,2898.3,271.0,465.8,2415.5,2927.8,151.3,76.3,14.3
