time,f1,b1,f2,b2,f3,b3,f1p,f2p,f3p,f0,intensity,harmonicity
0.025408,275.1,46.9,2493.2,639.0,3855.3,271.9,275.6,2542.7,3938.3,242.3,64.8,5.9
0.027408,271.8,49.1,2475.1,606.8,3829.5,296.9,275.9,2543.1,3939.4,242.1,66,19.8
0.029408,267.8,52.9,2431.7,573.1,3801.5,428.9,276.3,2543.7,3941.3,241.8,66.9,22.4
0.031408,264.0,59.2,2419.1,572.9,3766.8,691.2,276.9,2544.6,3943.8,241.5,67.7,18.6
0.033408,262.0,68.6,2454.7,568.1,3768.8,869.2,277.6,2545.7,3947.1,241.2,68.2,13.3
0.035408,262.6,80.0,2510.7,528.8,3845.1,779.4,278.5,2547.1,3951,240.9,68.5,11.4
0.037408,265.5,89.6,2556.0,510.0,3891.9,614.2,279.5,2548.7,3955.6,240.6,68.8,13.1
0.039408,269.2,94.5,2586.0,548.4,3911.8,549.3,280.7,2550.5,3960.7,240.3,68.9,15.2
0.041408,273.2,97.7,2602.4,601.0,3934.2,539.1,282.1,2552.5,3966.4,240.1,69.1,17.4
0.043408,277.4,102.9,2601.7,589.0,3961.8,528.0,283.6,2554.6,3972.5,239.8,69.2,19.3
0.045408,282.5,112.6,2595.8,529.6,3986.3,522.5,285.3,2557,3979.1,239.6,69.3,20.7
0.047408,288.3,125.0,2596.5,485.9,4010.8,566.4,287.2,2559.5,3985.9,239.4,69.4,21.4
0.049408,292.9,134.1,2603.1,481.9,4059.7,666.8,289.2,2562.2,3993.1,239.2,69.5,21.6
0.051408,296.8,141.2,2602.0,489.4,4148.1,733.1,291.3,2565,4000.5,239,69.7,21.6
0.053408,302.5,150.7,2591.6,488.2,4205.5,645.3,293.6,2567.9,4008,238.8,69.9,21.6
0.055408,311.7,162.2,2594.7,489.2,4203.4,506.4,296,2570.9,4015.5,238.6,70.1,21.7
0.057408,323.2,169.0,2625.8,495.8,4183.7,401.0,298.5,2574,4023,238.5,70.3,22
0.059408,330.0,166.6,2662.4,486.0,4166.4,341.9,301.2,2577.2,4030.4,238.4,70.6,22.4
0.061408,327.8,160.9,2670.9,439.7,4146.2,312.1,304.1,2580.3,4037.6,238.3,70.9,22.7
0.063408,321.7,156.5,2652.5,371.6,4122.9,301.2,307,2583.5,4044.5,238.2,71.2,23.1
0.065408,317.5,154.0,2633.2,309.7,4102.2,304.3,310.1,2586.7,4051.1,238.2,71.5,23.5
0.067408,315.3,153.3,2622.4,273.5,4090.6,333.6,313.2,2589.9,4057.2,238.1,71.7,23.8
0.069408,311.8,152.6,2619.3,273.4,4095.1,403.5,316.5,2593,4062.8,238.1,72,24.2
0.071408,305.3,148.7,2622.4,308.9,4125.6,517.9,319.9,2596.1,4067.7,238.1,72.2,24.6
0.073408,300.3,142.6,2627.0,358.4,4172.2,623.7,323.4,2599.1,4072,238.1,72.4,24.9
0.075408,302.1,142.4,2615.9,387.3,4205.0,688.2,327,2602,4075.5,238.1,72.6,25.1
0.077408,312.6,150.8,2586.7,362.5,4187.8,704.4,330.6,2604.8,4078.2,238.1,72.8,25.2
0.079408,328.3,157.9,2565.9,303.4,4137.5,646.2,334.4,2607.6,4080,238.1,73,25.2
0.081408,343.9,157.4,2558.6,249.0,4105.9,558.1,338.2,2610.1,4080.9,238.1,73.2,25.1
0.083408,354.4,152.6,2559.5,217.1,4095.2,502.4,342,2612.6,4080.7,238.1,73.4,25.1
0.085408,361.1,147.7,2564.1,200.6,4092.2,480.7,345.9,2614.9,4079.5,238.1,73.6,25.2
0.087408,366.4,144.6,2572.5,189.4,4089.5,496.3,349.9,2617.1,4077.2,238.2,73.8,25.5
0.089408,371.5,142.9,2584.9,177.5,4087.6,556.9,353.8,2619,4073.8,238.2,74,25.8
0.091408,376.8,142.0,2599.5,164.6,4084.4,670.0,357.8,2620.9,4069.2,238.2,74.1,26.2
0.093408,381.2,140.8,2608.8,155.4,4053.5,795.7,361.8,2622.5,4063.4,238.2,74.2,26.6
0.095408,384.6,139.4,2609.5,150.4,3974.7,843.4,365.8,2624,4056.4,238.3,74.3,26.9
0.097408,386.4,139.1,2604.8,145.1,3894.6,789.9,369.8,2625.3,4048.1,238.3,74.4,27.2
0.099408,386.6,140.6,2601.8,138.7,3849.6,751.1,373.8,2626.5,4038.7,238.3,74.4,27.6
0.101408,386.6,142.7,2602.3,133.9,3820.0,793.4,377.7,2627.4,4028,238.4,74.4,27.9
0.103408,387.0,144.3,2606.1,131.7,3795.7,938.2,381.6,2628.2,4016.1,238.4,74.4,28.1
0.105408,387.7,145.9,2613.2,129.3,3780.2,1196.3,385.5,2628.8,4003,238.4,74.4,28.4
0.107408,388.4,147.3,2622.6,123.6,3800.3,1523.9,389.3,2629.2,3988.8,238.5,74.4,28.6
0.109408,389.3,146.4,2630.0,117.9,3863.2,1705.0,393,2629.5,3973.4,238.5,74.3,28.7
0.111408,390.9,142.0,2634.1,114.9,3913.7,1641.8,396.7,2629.7,3956.9,238.6,74.3,28.9
0.113408,392.4,137.3,2634.9,112.0,3933.1,1499.6,400.3,2629.6,3939.3,238.6,74.3,29
0.115408,394.0,135.0,2634.2,108.9,3950.6,1413.5,403.8,2629.5,3920.7,238.7,74.3,28.9
0.117408,395.7,135.3,2634.8,108.7,3963.9,1407.0,407.2,2629.2,3901.1,238.8,74.3,28.8
0.119408,397.2,136.3,2638.2,112.8,3952.0,1441.2,410.5,2628.7,3880.7,238.8,74.3,28.5
0.121408,399.3,135.0,2642.4,120.6,3900.4,1442.9,413.7,2628.2,3859.3,238.9,74.3,28.1
0.123408,402.2,130.8,2643.5,130.4,3825.2,1389.6,416.8,2627.5,3837.2,239,74.3,27.8
0.125408,405.4,126.9,2642.0,140.3,3755.1,1361.8,419.8,2626.8,3814.3,239.1,74.4,27.5
0.127408,407.8,126.7,2641.8,146.4,3706.9,1443.2,422.7,2625.9,3790.8,239.2,74.4,27.4
0.129408,409.1,128.5,2642.9,144.2,3685.8,1593.7,425.5,2625,3766.7,239.4,74.5,27.3
0.131408,410.5,128.4,2642.1,136.1,3686.5,1696.5,428.1,2623.9,3742.2,239.5,74.6,27.2
0.133408,413.0,125.3,2640.5,128.3,3695.1,1649.4,430.6,2622.8,3717.2,239.6,74.6,27.1
0.135408,417.0,120.2,2641.1,122.2,3694.4,1463.6,433,2621.7,3691.8,239.8,74.7,27
0.137408,422.4,113.4,2643.3,116.7,3678.6,1220.9,435.3,2620.4,3666.2,239.9,74.8,26.7
0.139408,427.4,106.5,2643.5,112.2,3659.9,1046.8,437.5,2619.1,3640.4,240.1,74.9,26.3
0.141408,431.1,100.9,2640.8,110.0,3649.8,988.1,439.6,2617.7,3614.4,240.2,75,26
0.143408,433.4,98.2,2637.9,111.2,3654.0,1064.8,441.6,2616.3,3588.5,240.4,75.2,25.6
0.145408,435.6,96.2,2637.0,116.2,3667.6,1240.7,443.4,2614.8,3562.6,240.6,75.3,25.4
0.147408,439.3,91.5,2636.9,130.6,3672.5,1382.3,445.2,2613.3,3536.8,240.7,75.5,25.3
0.149408,444.2,82.3,2632.2,161.6,3657.4,1311.3,446.9,2611.7,3511.1,240.9,75.7,25.3
0.151408,449.4,71.1,2615.6,210.8,3650.4,1092.0,448.6,2610,3485.8,241,75.9,25.3
0.153408,453.9,62.3,2590.3,259.5,3661.9,893.7,450.1,2608.2,3460.7,241.2,76.1,25.3
0.155408,457.9,57.0,2571.6,298.4,3666.2,776.6,451.7,2606.4,3436.1,241.4,76.3,25.1
0.157408,461.6,54.6,2568.0,331.3,3633.2,737.8,453.1,2604.5,3411.8,241.5,76.5,24.9
0.159408,464.8,52.6,2568.6,360.1,3552.2,720.8,454.6,2602.5,3388.1,241.6,76.7,24.5
0.161408,468.0,48.5,2565.6,387.1,3438.6,654.7,456,2600.4,3364.9,241.8,77,24.1
0.163408,471.0,42.8,2563.6,399.6,3346.8,551.3,457.4,2598.2,3342.3,241.9,77.2,23.7
0.165408,474.0,37.1,2563.6,384.8,3289.4,456.9,458.8,2595.9,3320.3,242,77.5,23.3
0.167408,476.4,33.0,2557.5,351.8,3258.1,399.2,460.3,2593.5,3299,242.1,77.8,22.9
0.169408,478.4,30.0,2547.3,321.2,3237.0,378.2,461.7,2590.9,3278.4,242.2,78.1,22.4
0.171408,480.2,27.1,2541.9,298.1,3221.1,398.1,463.2,2588.1,3258.4,242.3,78.5,22
0.173408,481.7,24.3,2547.3,266.7,3211.1,461.3,464.8,2585.2,3239.3,242.3,78.9,21.6
0.175408,482.9,22.0,2562.2,206.5,3208.3,570.3,466.4,2582,3220.9,242.4,79.4,21.3
0.177408,483.8,20.8,2574.8,138.6,3197.1,683.5,468.1,2578.7,3203.2,242.4,79.8,21.2
0.179408,484.2,20.2,2579.3,99.4,3155.5,730.6,469.9,2575.2,3186.4,242.4,80.3,21.2
0.181408,484.4,19.2,2580.8,79.4,3099.3,737.3,471.8,2571.4,3170.3,242.5,80.9,21.3
0.183408,484.5,18.0,2583.2,68.6,3064.1,779.3,473.8,2567.4,3155,242.5,81.4,21.4
0.185408,484.6,16.7,2587.4,61.9,3053.2,892.2,476,2563.1,3140.5,242.4,81.8,21.4
0.187408,484.8,15.3,2590.6,61.4,3053.2,983.4,478.3,2558.6,3126.7,242.4,82.3,21.5
0.189408,485.4,14.2,2589.2,71.2,3029.2,909.8,480.7,2553.7,3113.7,242.4,82.6,21.6
0.191408,486.1,13.5,2577.5,90.4,2986.7,699.6,483.2,2548.6,3101.4,242.4,82.9,21.8
0.193408,486.9,13.4,2557.2,102.7,2964.2,520.0,485.9,2543.1,3089.8,242.3,83.1,21.8
0.195408,487.5,13.7,2538.9,102.8,2955.1,411.8,488.8,2537.4,3078.9,242.3,83.2,21.7
0.197408,488.1,14.5,2530.1,100.4,2947.1,363.8,491.8,2531.3,3068.7,242.2,83.1,21.4
0.199408,488.5,15.8,2529.0,101.1,2938.5,350.7,495,2524.8,3059.2,242.2,83,20.9
0.201408,489.0,17.8,2531.1,107.5,2929.3,357.4,498.4,2518.1,3050.2,242.1,82.7,20.4
0.203408,489.6,20.6,2529.9,120.1,2925.9,358.5,501.9,2511,3041.8,242.1,82.3,19.9
0.205408,490.3,24.4,2520.1,136.8,2940.8,327.1,505.6,2503.5,3034,242.1,81.8,19.6
0.207408,491.2,29.6,2502.6,150.2,2977.4,262.6,509.4,2495.8,3026.7,242.1,81.3,19.5
0.209408,492.5,35.8,2489.4,155.2,3016.4,201.7,513.4,2487.7,3019.9,242.1,80.7,19.6
0.211408,495.1,43.2,2485.5,155.2,3047.2,159.2,517.5,2479.2,3013.5,242.1,80.1,19.8
0.213408,499.9,50.4,2485.5,154.7,3062.8,137.3,521.8,2470.4,3007.6,242.1,79.5,20.1
0.215408,507.2,57.0,2482.5,154.4,3065.6,128.3,526.2,2461.4,3002.1,242.2,79,20.2
0.217408,514.9,62.7,2475.9,151.9,3060.7,129.1,530.7,2452,2996.9,242.2,78.6,20.4
0.219408,521.7,69.2,2466.7,148.0,3053.7,138.3,535.3,2442.3,2992.1,242.3,78.2,20.5
0.221408,528.8,76.8,2455.0,145.3,3046.4,156.6,540,2432.3,2987.5,242.4,77.9,20.6
0.223408,537.5,82.5,2443.3,150.3,3038.6,187.1,544.7,2422.1,2983.3,242.5,77.7,20.8
0.225408,547.9,85.5,2437.7,170.9,3030.1,237.3,549.6,2411.7,2979.3,242.7,77.5,20.9
0.227408,557.8,86.9,2444.5,207.4,3020.3,298.3,554.4,2401.1,2975.6,242.8,77.3,21.1
0.229408,567.2,88.4,2456.7,245.4,3009.4,352.1,559.3,2390.2,2972.1,243,77.2,21.3
0.231408,575.6,91.3,2443.8,258.3,3003.7,359.3,564.1,2379.2,2968.8,243.2,77.1,21.6
0.233408,581.5,96.1,2394.5,241.2,3007.5,311.4,568.9,2368.1,2965.6,243.4,77,21.7
0.235408,585.4,100.6,2332.8,206.6,3018.7,249.2,573.7,2356.9,2962.7,243.7,76.9,21.8
0.237408,588.8,102.0,2281.7,167.7,3026.8,200.2,578.4,2345.6,2959.9,244,76.9,21.7
0.239408,591.9,101.7,2254.9,142.5,3023.0,177.0,583.1,2334.2,2957.2,244.2,76.9,21.5
0.241408,594.7,102.1,2242.8,130.9,3011.4,171.5,587.6,2322.9,2954.7,244.5,77,21.3
0.243408,597.6,102.9,2235.3,125.1,3004.8,172.0,592,2311.5,2952.4,244.8,77,21.1
0.245408,601.4,102.2,2226.5,115.4,3009.7,170.8,596.2,2300.3,2950.2,245.2,77.1,21
0.247408,606.3,98.0,2217.9,102.3,3019.5,168.1,600.2,2289.1,2948.1,245.5,77.2,21
0.249408,611.7,90.8,2212.9,92.6,3023.7,170.5,604.1,2278,2946.2,245.9,77.3,21.1
0.251408,616.5,84.9,2215.1,94.9,3013.7,185.7,607.7,2267.1,2944.4,246.2,77.4,21.2
0.253408,619.9,83.6,2223.8,113.2,2991.9,209.0,611,2256.4,2942.7,246.6,77.6,21.4
0.255408,622.4,86.5,2235.8,147.7,2969.0,231.5,614.1,2246,2941.3,247,77.7,21.7
0.257408,623.8,91.7,2244.6,187.6,2951.4,247.9,617,2235.7,2940,247.3,77.7,22.1
0.259408,624.6,97.0,2248.5,224.9,2929.5,256.8,619.5,2225.8,2938.8,247.7,77.8,22.5
0.261408,624.7,101.4,2251.3,258.6,2897.2,251.8,621.7,2216.2,2937.9,248.1,77.8,23
0.263408,623.8,104.9,2256.0,282.7,2873.7,233.7,623.6,2207,2937.1,248.5,77.9,23.5
0.265408,621.7,108.4,2259.9,292.6,2871.1,218.3,625.1,2198.1,2936.6,249,77.9,23.8
0.267408,619.4,110.7,2252.2,288.0,2881.1,209.2,626.3,2189.7,2936.3,249.4,77.9,24
0.269408,618.7,110.0,2230.6,274.1,2891.4,204.7,627.2,2181.6,2936.1,249.8,77.8,24.1
0.271408,619.7,107.1,2200.4,258.4,2896.1,203.6,627.6,2174,2936.3,250.2,77.8,24.1
0.273408,620.9,103.9,2169.1,246.7,2893.0,205.8,627.7,2166.9,2936.6,250.6,77.7,24.1
0.275408,620.8,101.8,2136.1,232.0,2885.3,212.9,627.4,2160.3,2937.3,251.1,77.7,23.9
0.277408,619.3,101.2,2110.3,206.7,2878.2,228.1,626.7,2154.1,2938.1,251.5,77.6,23.5
0.279408,617.5,100.7,2094.8,174.9,2872.4,244.6,625.7,2148.5,2939.3,251.9,77.5,22.9
0.281408,616.7,99.8,2087.5,148.4,2871.4,243.2,624.3,2143.3,2940.7,252.4,77.4,22.2
0.283408,615.6,99.8,2086.8,138.8,2883.8,224.5,622.5,2138.7,2942.4,252.8,77.2,21.6
0.285408,612.8,101.0,2092.0,145.9,2910.1,203.7,620.3,2134.6,2944.3,253.2,77.1,21.2
0.287408,610.6,100.5,2101.0,158.7,2937.5,185.4,617.8,2131,2946.5,253.6,77,21.2
0.289408,609.4,98.0,2113.2,168.8,2961.9,173.1,615,2128,2949,254,76.9,21.3
0.291408,607.5,95.0,2130.0,177.8,2983.4,170.0,611.8,2125.4,2951.7,254.4,76.7,21.5
0.293408,604.5,92.3,2150.4,189.9,2998.2,174.1,608.4,2123.3,2954.7,254.8,76.6,21.7
0.295408,601.6,89.2,2173.0,204.9,3006.0,179.1,604.6,2121.7,2958,255.2,76.4,21.8
0.297408,599.8,85.9,2190.9,217.3,3007.7,179.7,600.6,2120.6,2961.4,255.6,76.3,21.7
0.299408,598.4,82.5,2200.3,227.7,3006.5,177.1,596.3,2119.9,2965.1,256,76.2,21.6
0.301408,596.9,79.0,2193.4,230.4,3000.5,172.7,591.8,2119.7,2969,256.3,76,21.4
0.303408,595.7,75.8,2168.1,212.4,2987.1,169.0,587.1,2119.8,2973.1,256.7,76,21.2
0.305408,594.4,73.2,2138.9,180.1,2968.8,173.4,582.2,2120.4,2977.4,257,75.9,21
0.307408,591.8,72.0,2123.3,160.3,2956.6,189.9,577.2,2121.2,2981.7,257.3,76,20.7
0.309408,587.2,71.7,2121.2,157.7,2958.3,210.9,572.1,2122.4,2986.3,257.6,76.1,20.3
0.311408,581.1,71.3,2127.6,164.0,2970.4,225.3,566.9,2123.9,2990.9,257.8,76.2,19.9
0.313408,574.9,70.7,2134.9,168.4,2979.9,230.7,561.6,2125.7,2995.5,258.1,76.4,19.6
0.315408,567.8,70.0,2139.4,168.1,2981.7,233.3,556.3,2127.6,3000.3,258.4,76.6,19.5
0.317408,559.1,68.5,2142.4,165.9,2979.3,232.4,551,2129.8,3005,258.6,76.8,19.8
0.319408,549.5,65.6,2145.9,163.9,2983.1,224.0,545.8,2132.1,3009.7,258.8,77.1,20.4
0.321408,539.0,61.0,2148.8,160.9,2996.3,211.2,540.6,2134.6,3014.4,259,77.4,21.1
0.323408,529.7,55.6,2148.2,154.6,3010.0,201.6,535.6,2137.1,3019,259.2,77.7,21.7
0.325408,522.1,50.2,2144.6,142.0,3018.0,196.7,530.6,2139.7,3023.6,259.4,77.9,22.1
0.327408,517.2,46.4,2138.9,123.3,3017.9,194.7,525.8,2142.3,3027.9,259.5,78.2,22.2
0.329408,515.0,43.7,2130.9,99.0,3012.9,188.0,521.2,2144.9,3032.2,259.7,78.3,22.2
0.331408,514.2,40.5,2121.7,74.0,3011.7,169.2,516.9,2147.4,3036.2,259.9,78.4,22.1
0.333408,513.3,36.3,2114.3,56.4,3017.5,150.4,512.7,2149.9,3040,260,78.4,21.7
0.335408,511.3,32.2,2109.7,45.3,3022.8,140.0,508.9,2152.2,3043.6,260.2,78.2,21.1
0.337408,508.8,29.5,2108.7,39.9,3026.3,135.4,505.3,2154.4,3047,260.3,77.9,20.1
0.339408,505.3,28.4,2110.4,39.1,3037.5,127.9,502,2156.5,3050,260.5,77.4,18.7
0.341408,499.9,29.8,2115.5,45.3,3058.6,114.5,499.1,2158.4,3052.7,260.6,76.9,17.2
0.343408,493.4,34.6,2125.1,63.9,3077.0,104.5,496.5,2160,3055.1,260.8,76.2,15.8
0.345408,487.3,43.4,2143.1,104.8,3088.5,104.8,494.3,2161.5,3057.2,261,75.5,14.9
0.347408,484.9,53.3,2166.2,163.6,3095.1,115.7,492.5,2162.7,3058.9,261.1,74.9,14.5
0.349408,485.7,61.9,2185.4,227.4,3101.4,131.3,491.1,2163.7,3060.3,261.3,74.3,14.3
0.351408,487.4,68.1,2193.0,288.8,3107.0,143.1,490.1,2164.3,3061.2,261.4,73.8,14.4
0.353408,487.5,72.8,2190.6,347.9,3106.9,145.2,489.4,2164.8,3061.8,261.6,73.4,14.7
0.355408,485.8,78.7,2192.2,431.3,3098.4,144.1,489.2,2164.9,3062,261.8,73,15.2
