time,f1,b1,f2,b2,f3,b3,f1p,f2p,f3p,f0,intensity,harmonicity
0.025528,314.9,53.7,2598.6,138.7,3217.4,559.3,344.2,2644.6,3374.2,233.1,68.8,9.3
0.027528,328.2,60.3,2607.6,144.8,3263.6,613.8,344.4,2645,3376.8,233.4,69.3,11.8
0.029528,340.4,64.4,2613.3,161.4,3319.4,589.8,344.7,2645.6,3381.1,233.6,69.7,12.9
0.031528,349.7,67.5,2622.8,194.4,3363.4,521.0,345.1,2646.5,3387.1,233.9,69.9,13.5
0.033528,356.7,70.8,2646.4,244.4,3394.5,487.3,345.6,2647.7,3394.7,234.2,70.1,13.7
0.035528,362.1,73.1,2685.1,294.5,3424.1,531.7,346.2,2649.2,3403.8,234.5,70.1,13.8
0.037528,366.1,73.1,2715.4,317.7,3449.0,630.0,346.9,2651,3414.4,234.8,70.1,14.1
0.039528,368.5,71.3,2714.4,313.7,3451.3,710.3,347.6,2653.1,3426.5,235.1,70.1,14.6
0.041528,369.2,69.9,2690.7,286.9,3452.8,700.2,348.5,2655.5,3439.8,235.4,70,15
0.043528,368.7,70.2,2667.3,250.1,3485.1,634.9,349.3,2658.3,3454.3,235.8,70,15.5
0.045528,367.1,72.1,2655.5,219.8,3535.8,543.5,350.3,2661.5,3469.9,236.1,70,16
0.047528,364.0,76.6,2655.3,193.5,3574.6,409.0,351.2,2665.1,3486.4,236.5,70.2,16.6
0.049528,359.4,84.5,2660.3,164.0,3585.1,277.7,352.2,2669.1,3503.7,236.8,70.4,17.4
0.051528,354.1,96.0,2663.2,132.0,3585.3,188.0,353.1,2673.5,3521.8,237.2,70.7,18.4
0.053528,349.2,110.1,2662.3,105.5,3591.0,137.0,354.1,2678.4,3540.4,237.5,71.1,19.4
0.055528,344.9,123.4,2660.5,89.9,3602.7,111.8,355,2683.7,3559.4,237.9,71.5,20.3
0.057528,340.5,132.0,2661.3,85.9,3614.0,102.4,356,2689.5,3578.7,238.2,71.8,20.9
0.059528,336.0,134.2,2666.2,91.5,3624.2,103.7,356.9,2695.8,3598.1,238.6,72.2,21.1
0.061528,332.5,131.9,2676.0,103.3,3636.2,111.1,357.7,2702.5,3617.5,238.9,72.4,21.1
0.063528,331.4,128.5,2690.8,116.5,3649.3,118.7,358.5,2709.7,3636.9,239.3,72.6,21
0.065528,333.5,126.6,2710.1,128.3,3658.2,122.1,359.3,2717.4,3655.9,239.6,72.7,20.9
0.067528,338.6,127.9,2732.9,137.3,3660.4,121.7,360.1,2725.4,3674.7,240,72.8,20.9
0.069528,346.6,133.2,2756.6,143.3,3658.4,120.8,360.8,2733.9,3692.9,240.3,72.8,21.2
0.071528,356.5,140.9,2777.3,147.6,3655.8,123.7,361.4,2742.7,3710.5,240.6,72.8,21.5
0.073528,365.1,146.4,2792.0,153.9,3655.8,134.5,362,2751.9,3727.5,240.9,72.8,21.9
0.075528,368.7,146.0,2801.3,164.9,3662.2,157.0,362.7,2761.4,3743.7,241.2,72.8,22.4
0.077528,367.6,140.6,2807.9,177.7,3678.7,191.5,363.2,2771.1,3759.1,241.5,72.8,22.9
0.079528,364.9,133.9,2812.9,185.7,3705.7,233.5,363.8,2781.1,3773.6,241.8,72.9,23.6
0.081528,362.8,128.7,2815.2,186.6,3739.2,278.2,364.4,2791.1,3787.1,242.1,73,24.4
0.083528,361.8,125.9,2813.7,180.8,3774.3,323.8,365.1,2801.3,3799.6,242.4,73,25.2
0.085528,362.1,125.6,2810.4,169.3,3810.0,371.9,365.7,2811.5,3811.1,242.7,73.1,25.9
0.087528,364.1,127.3,2810.1,153.0,3847.3,424.0,366.4,2821.7,3821.5,242.9,73,26.3
0.089528,367.9,130.2,2816.9,134.7,3882.8,472.2,367.2,2831.7,3830.9,243.2,73,26.4
0.091528,373.2,133.2,2830.0,117.4,3906.6,494.7,368,2841.6,3839.1,243.5,72.9,26.2
0.093528,378.9,135.1,2844.5,104.1,3913.9,481.5,368.9,2851.3,3846.3,243.7,72.8,25.9
0.095528,383.4,135.4,2856.6,96.9,3910.3,452.2,370,2860.6,3852.4,244,72.7,25.7
0.097528,385.8,133.8,2865.2,96.2,3901.1,427.9,371.1,2869.6,3857.4,244.2,72.5,25.6
0.099528,386.7,131.0,2870.8,100.5,3888.2,412.7,372.3,2878.2,3861.4,244.4,72.4,25.9
0.101528,387.1,128.5,2873.8,107.8,3873.0,403.5,373.6,2886.3,3864.4,244.7,72.3,26.4
0.103528,387.3,126.8,2874.2,116.9,3858.4,400.3,375.1,2893.9,3866.5,244.9,72.2,26.9
0.105528,387.3,125.7,2872.5,127.8,3848.9,406.9,376.6,2900.9,3867.6,245.1,72.2,27.4
0.107528,387.2,125.1,2870.3,140.6,3847.8,426.8,378.3,2907.2,3867.8,245.3,72.1,27.7
0.109528,387.3,125.0,2871.7,154.4,3855.0,462.2,380,2912.9,3867.2,245.6,72.1,27.8
0.111528,387.9,125.7,2880.6,168.4,3865.7,511.9,381.9,2917.9,3865.8,245.8,72.1,27.9
0.113528,388.8,126.9,2897.4,182.4,3871.2,564.8,383.8,2922.3,3863.6,246,72.1,27.8
0.115528,389.8,128.0,2917.2,195.6,3862.4,599.0,385.8,2925.8,3860.7,246.2,72.1,27.8
0.117528,390.8,128.4,2932.8,204.3,3842.6,602.4,387.8,2928.7,3857.1,246.4,72.1,27.8
0.119528,391.5,127.9,2941.0,204.0,3824.7,588.0,389.9,2930.8,3852.9,246.6,72.1,27.8
0.121528,392.1,127.2,2943.9,195.3,3813.2,571.5,392,2932.2,3848.1,246.8,72.2,27.7
0.123528,393.0,127.4,2945.2,182.6,3805.6,553.7,394,2932.9,3842.7,247,72.2,27.7
0.125528,394.0,128.6,2946.6,170.4,3801.0,528.4,396,2932.9,3836.8,247.2,72.3,27.7
0.127528,394.4,129.8,2947.0,162.0,3799.8,498.3,397.9,2932.3,3830.4,247.4,72.4,27.9
0.129528,393.3,130.7,2944.9,158.9,3800.3,474.6,399.6,2931,3823.6,247.6,72.5,28.3
0.131528,391.5,131.6,2940.6,160.1,3801.0,465.3,401.3,2929.1,3816.2,247.8,72.6,28.8
0.133528,390.2,132.9,2936.3,163.3,3802.9,467.8,402.7,2926.6,3808.5,248,72.7,29.5
0.135528,390.2,134.8,2933.8,168.7,3805.0,469.8,404,2923.7,3800.2,248.2,72.8,30.1
0.137528,391.6,137.6,2933.2,178.6,3803.7,458.7,405.1,2920.3,3791.6,248.4,72.8,30.5
0.139528,394.1,141.3,2933.6,195.4,3796.7,434.7,405.8,2916.5,3782.5,248.6,72.9,30.6
0.141528,396.9,145.6,2934.6,218.7,3787.0,408.2,406.4,2912.3,3773.1,248.8,72.9,30.7
0.143528,399.5,150.0,2936.7,243.4,3778.7,386.7,406.6,2907.9,3763.2,249,73,30.7
0.145528,401.9,153.8,2938.7,262.7,3771.9,368.5,406.5,2903.2,3752.8,249.2,73.1,30.6
0.147528,403.6,156.6,2936.4,272.3,3763.7,348.0,406.1,2898.3,3742.1,249.5,73.2,30.6
0.149528,404.0,158.6,2924.5,272.7,3751.4,321.9,405.3,2893.2,3730.9,249.7,73.2,30.5
0.151528,403.0,159.9,2902.8,264.8,3736.3,291.0,404.2,2888,3719.3,249.9,73.3,30.4
0.153528,401.4,160.6,2876.7,246.7,3721.9,258.7,402.8,2882.8,3707.2,250.2,73.4,30.2
0.155528,400.2,160.7,2854.1,219.4,3710.4,229.8,401,2877.5,3694.6,250.4,73.4,30
0.157528,399.1,160.4,2840.0,189.6,3701.9,209.6,399,2872.3,3681.6,250.7,73.5,29.8
0.159528,397.4,160.2,2833.4,163.9,3694.4,200.7,396.6,2867,3668.1,250.9,73.5,29.6
0.161528,395.0,160.3,2830.1,144.0,3684.4,203.3,393.9,2861.8,3654.2,251.2,73.5,29.4
0.163528,392.1,160.2,2827.1,128.3,3668.6,215.8,391,2856.6,3639.8,251.5,73.6,29.1
0.165528,388.9,159.1,2823.6,115.3,3645.9,235.7,387.9,2851.5,3624.9,251.7,73.6,28.8
0.167528,385.1,155.9,2819.8,104.8,3618.2,260.4,384.6,2846.5,3609.5,252,73.6,28.4
0.169528,380.4,149.9,2816.4,96.9,3590.8,287.1,381.1,2841.5,3593.7,252.3,73.6,27.8
0.171528,375.5,142.5,2813.6,91.2,3569.9,310.9,377.5,2836.5,3577.5,252.6,73.7,27.2
0.173528,371.7,136.0,2812.5,87.3,3559.0,325.8,373.9,2831.5,3560.9,252.9,73.7,26.5
0.175528,369.3,132.1,2813.7,85.1,3554.5,330.5,370.3,2826.5,3543.8,253.3,73.8,25.8
0.177528,367.7,130.5,2817.8,86.1,3547.7,332.1,366.7,2821.5,3526.4,253.6,73.8,25.3
0.179528,366.4,130.1,2824.3,91.8,3529.6,339.2,363.2,2816.4,3508.7,253.9,73.9,24.8
0.181528,364.8,130.1,2832.2,103.5,3496.0,353.7,359.9,2811.2,3490.6,254.3,74,24.4
0.183528,363.0,130.4,2839.8,122.2,3449.2,369.4,356.8,2805.8,3472.3,254.6,74.1,24.1
0.185528,361.2,130.9,2844.5,147.3,3398.3,373.5,354,2800.2,3453.8,254.9,74.2,23.8
0.187528,359.7,132.1,2842.1,174.1,3354.3,355.3,351.5,2794.5,3435,255.3,74.4,23.6
0.189528,358.4,133.4,2828.2,191.7,3326.5,318.1,349.4,2788.4,3416.2,255.6,74.5,23.4
0.191528,357.0,134.0,2805.3,188.8,3316.4,278.4,347.7,2782,3397.3,255.9,74.7,23.3
0.193528,355.9,134.7,2781.9,167.5,3317.3,246.3,346.4,2775.3,3378.3,256.3,74.9,23.3
0.195528,356.1,137.4,2763.7,140.3,3321.1,220.9,345.6,2768.3,3359.4,256.6,75.1,23.3
0.197528,358.1,143.1,2750.7,116.6,3322.4,201.0,345.4,2760.8,3340.5,256.9,75.4,23.4
0.199528,361.9,151.0,2740.7,100.5,3319.6,189.5,345.7,2752.9,3321.8,257.2,75.6,23.5
0.201528,365.8,158.3,2731.2,93.0,3312.5,190.1,346.6,2744.6,3303.3,257.5,75.9,23.7
0.203528,367.6,162.4,2720.3,93.6,3302.0,204.8,348,2735.8,3285,257.7,76.1,23.9
0.205528,366.3,162.5,2707.3,101.1,3289.6,233.7,350.1,2726.6,3267,257.9,76.4,24.2
0.207528,362.5,159.6,2692.3,112.4,3278.2,272.1,352.7,2716.9,3249.3,258.2,76.6,24.6
0.209528,358.2,155.5,2675.8,121.5,3268.7,308.0,355.9,2706.8,3232,258.3,76.9,25.2
0.211528,354.6,151.7,2660.5,122.5,3256.6,327.9,359.7,2696.3,3215.2,258.5,77.1,25.9
0.213528,352.0,148.6,2650.0,117.3,3234.1,327.9,364,2685.4,3198.8,258.6,77.2,26.7
0.215528,350.5,146.1,2644.2,111.2,3199.0,306.6,368.8,2674.2,3183,258.7,77.4,27.4
0.217528,350.7,145.0,2640.0,104.7,3162.4,264.3,374,2662.7,3167.7,258.7,77.6,27.9
0.219528,352.6,144.8,2637.4,96.4,3139.2,219.4,379.6,2651,3153,258.7,77.7,28.1
0.221528,354.9,144.0,2637.6,88.1,3132.3,190.5,385.7,2639.1,3138.9,258.6,77.8,28.3
0.223528,358.2,142.7,2639.1,81.8,3134.3,176.3,392,2627.1,3125.4,258.5,77.8,28.3
0.225528,363.6,142.6,2639.0,76.7,3137.4,166.6,398.5,2615,3112.6,258.4,77.9,28.2
0.227528,372.0,144.5,2635.3,71.3,3136.7,154.4,405.2,2603,3100.5,258.2,77.8,27.8
0.229528,384.4,148.4,2627.6,63.9,3130.8,137.8,412,2591.2,3089.1,258,77.8,27.3
0.231528,401.3,152.6,2617.2,54.4,3120.6,119.8,418.8,2579.5,3078.4,257.8,77.7,26.5
0.233528,421.5,153.2,2606.0,44.6,3108.2,105.0,425.6,2568.2,3068.5,257.5,77.6,25.5
0.235528,440.4,148.3,2595.9,36.8,3095.8,97.0,432.2,2557.3,3059.2,257.1,77.5,24.5
0.237528,454.9,140.4,2587.3,31.8,3084.6,96.1,438.7,2546.8,3050.8,256.7,77.3,23.6
0.239528,464.9,132.0,2579.6,29.6,3074.6,101.2,444.8,2537,3043,256.3,77.2,22.5
0.241528,471.2,123.7,2571.8,30.6,3064.8,111.9,450.6,2527.7,3036,255.9,77,21.4
0.243528,475.2,115.0,2562.8,35.7,3052.8,127.5,456,2519.2,3029.8,255.5,76.9,20.3
0.245528,478.2,105.8,2550.9,47.3,3035.1,141.8,461,2511.5,3024.2,255,76.8,19.3
0.247528,480.7,96.7,2534.4,68.9,3012.7,144.3,465.4,2504.7,3019.5,254.5,76.7,18.5
0.249528,481.7,88.2,2513.7,104.4,2992.6,137.2,469.2,2498.9,3015.4,254,76.6,18
0.251528,481.0,79.8,2490.3,154.6,2977.2,133.1,472.4,2494,3012.1,253.5,76.5,17.7
0.253528,479.7,71.1,2463.2,214.2,2964.7,137.0,474.9,2490.1,3009.6,253,76.4,17.6
0.255528,478.7,63.0,2429.2,273.7,2953.7,145.4,476.7,2487.4,3007.7,252.5,76.2,17.4
0.257528,477.6,56.2,2391.5,328.4,2944.9,155.5,477.8,2485.7,3006.6,252.1,76,17.1
0.259528,475.6,50.5,2362.8,386.6,2940.2,170.5,478.2,2485.1,3006.3,251.6,75.7,16.6
