time,f1,b1,f2,b2,f3,b3,f1p,f2p,f3p,f0,intensity,harmonicity
0.025578,240.9,105.4,2612.3,57.6,3631.7,465.0,215.1,2643.3,3628.8,204.3,71,17.5
0.027578,239.2,104.4,2620.5,53.8,3655.8,449.6,215.5,2643.3,3628.6,204.5,71.8,17.6
0.029578,237.1,103.2,2628.5,49.7,3690.2,465.5,216.3,2643.3,3628.2,204.8,72.6,17.8
0.031578,235.0,101.5,2635.5,45.9,3726.9,501.3,217.3,2643.4,3627.6,205.2,73.4,18
0.033578,232.7,96.2,2641.6,44.6,3758.8,570.3,218.6,2643.4,3626.8,205.5,74.1,18.2
0.035578,230.4,87.3,2645.8,48.1,3769.8,670.1,220.2,2643.5,3625.8,205.9,74.8,18.5
0.037578,228.3,76.9,2647.4,57.6,3753.5,784.8,222.1,2643.6,3624.5,206.3,75.4,18.9
0.039578,226.3,65.9,2646.3,76.3,3707.3,875.7,224.3,2643.8,3623,206.7,76,19.3
0.041578,225.0,56.3,2644.7,104.9,3632.3,855.6,226.9,2644,3621.2,207.1,76.5,19.8
0.043578,224.8,48.9,2646.3,137.0,3551.4,727.3,229.8,2644.3,3619.1,207.6,76.9,20.2
0.045578,225.7,45.5,2651.2,150.4,3506.7,595.0,233,2644.7,3616.6,208.1,77.3,20.6
0.047578,227.3,45.4,2655.4,146.3,3492.1,497.8,236.5,2645.1,3613.7,208.6,77.6,20.8
0.049578,229.7,48.1,2657.1,139.6,3493.6,429.6,240.5,2645.7,3610.4,209.1,77.9,20.9
0.051578,232.3,51.9,2657.8,138.4,3500.7,384.0,244.7,2646.4,3606.7,209.6,78.1,21
0.053578,235.1,55.4,2659.6,140.6,3505.1,350.1,249.3,2647.2,3602.5,210.1,78.3,21.1
0.055578,237.6,57.3,2662.3,139.2,3501.9,326.7,254.2,2648.1,3597.8,210.6,78.4,21.1
0.057578,239.8,57.9,2662.7,130.0,3494.4,307.9,259.5,2649.2,3592.6,211.2,78.5,21.1
0.059578,242.1,58.7,2657.9,113.5,3491.3,293.3,265.1,2650.5,3586.9,211.7,78.5,21.2
0.061578,244.9,61.4,2650.0,95.2,3500.3,293.6,271,2651.8,3580.6,212.3,78.4,21.1
0.063578,249.1,67.2,2644.0,78.2,3525.7,319.3,277.3,2653.4,3573.7,212.8,78.3,21
0.065578,254.2,74.9,2644.2,66.8,3562.5,368.4,283.8,2655.1,3566.3,213.3,78.1,20.7
0.067578,260.5,82.9,2650.0,60.8,3597.6,427.0,290.6,2656.9,3558.4,213.8,77.8,20.3
0.069578,268.2,90.7,2659.0,58.7,3614.4,478.1,297.6,2658.9,3549.9,214.3,77.5,19.7
0.071578,276.9,97.3,2667.1,58.3,3605.0,506.3,304.8,2661,3540.9,214.8,77.1,19.1
0.073578,287.3,103.0,2673.1,58.5,3574.4,509.9,312.2,2663.2,3531.4,215.3,76.5,18.3
0.075578,299.1,106.1,2677.0,59.2,3541.2,495.5,319.8,2665.5,3521.4,215.7,75.9,17.5
0.077578,313.2,106.2,2679.8,60.4,3518.8,478.4,327.4,2667.9,3511,216.1,75.1,16.7
0.079578,331.7,102.9,2681.9,61.6,3507.6,465.0,335.2,2670.4,3500.2,216.5,74.2,15.9
0.081578,353.7,95.8,2682.9,63.2,3500.6,455.4,342.9,2672.8,3489,216.9,73.3,14.9
0.083578,380.5,83.5,2683.2,66.4,3491.3,453.8,350.6,2675.3,3477.6,217.2,72.2,14
0.085578,407.2,68.2,2683.3,71.4,3477.8,465.9,358.2,2677.7,3465.9,217.5,71.1,13
0.087578,430.3,53.1,2683.3,76.5,3456.4,482.9,365.7,2680.1,3454.1,217.7,70.1,11.7
0.089578,445.8,41.4,2682.7,79.5,3429.5,485.8,373,2682.3,3442.2,218,69.4,10.2
0.091578,450.8,35.2,2681.0,80.3,3411.1,476.1,380.1,2684.4,3430.3,218.2,69.1,8.7
0.093578,448.1,33.4,2678.0,80.6,3403.5,474.0,386.9,2686.3,3418.4,218.3,69.1,7.7
0.095578,441.5,34.3,2675.1,81.4,3402.4,487.3,393.4,2687.9,3406.6,218.5,69.6,7.4
0.097578,433.8,36.3,2673.5,83.5,3402.4,513.0,399.5,2689.3,3395,218.6,70.1,8.3
0.099578,426.2,38.4,2673.8,87.8,3400.8,546.8,405.2,2690.4,3383.8,218.6,70.8,10
0.101578,419.8,39.9,2676.0,94.3,3397.5,578.0,410.5,2691.1,3372.8,218.7,71.3,12.1
0.103578,414.4,40.8,2679.9,102.7,3391.6,604.6,415.3,2691.3,3362.3,218.7,71.9,14.1
0.105578,410.2,41.2,2684.3,111.3,3380.4,628.2,419.6,2691.2,3352.2,218.7,72.3,15.6
0.107578,407.0,41.1,2688.0,119.7,3359.9,653.3,423.3,2690.5,3342.7,218.7,72.7,16.5
0.109578,404.6,40.7,2690.2,127.3,3329.4,675.0,426.6,2689.3,3333.8,218.6,73.1,17.2
0.111578,403.0,40.2,2690.7,132.4,3300.6,683.4,429.2,2687.6,3325.5,218.6,73.3,17.6
0.113578,401.9,40.0,2689.9,135.1,3282.1,681.0,431.4,2685.2,3317.9,218.5,73.6,18
0.115578,401.3,40.0,2687.5,135.8,3278.0,675.0,432.9,2682.2,3311,218.4,73.8,18.5
0.117578,401.3,40.3,2682.3,135.4,3287.4,667.4,434,2678.6,3304.8,218.3,74,19.1
0.119578,401.7,40.7,2673.8,134.0,3312.5,654.7,434.5,2674.3,3299.3,218.2,74.1,19.6
0.121578,402.4,40.8,2664.6,131.8,3347.1,630.5,434.5,2669.3,3294.6,218.1,74.3,20.2
0.123578,403.4,40.3,2656.4,130.9,3377.4,585.6,434,2663.5,3290.7,217.9,74.4,20.7
0.125578,404.6,39.4,2650.3,133.8,3382.0,525.5,433.2,2657.1,3287.4,217.8,74.6,21.1
0.127578,406.1,38.5,2644.6,140.3,3361.6,456.2,431.9,2649.9,3284.9,217.6,74.7,21.5
0.129578,408.0,38.1,2638.5,146.4,3330.1,387.4,430.4,2642,3283,217.5,74.9,21.7
0.131578,410.2,37.9,2632.0,149.9,3302.5,340.6,428.5,2633.3,3281.7,217.3,75.1,22
0.133578,412.6,37.0,2622.8,152.6,3280.9,318.4,426.5,2623.9,3281,217.1,75.3,22.1
0.135578,414.8,34.9,2610.5,152.7,3269.1,314.5,424.4,2613.9,3280.7,216.9,75.6,22.2
0.137578,417.0,31.7,2596.6,147.1,3268.3,316.1,422.2,2603.1,3280.9,216.7,75.9,22.1
0.139578,419.3,28.0,2584.4,134.4,3278.7,306.5,420,2591.7,3281.4,216.5,76.2,22
0.141578,421.6,25.1,2575.3,117.3,3288.9,271.7,417.9,2579.7,3282.1,216.3,76.6,21.7
0.143578,424.2,22.9,2567.1,102.9,3291.8,235.8,416,2567,3283,216,77,21.5
0.145578,426.4,21.1,2559.8,100.9,3292.6,229.0,414.3,2553.8,3284,215.8,77.4,21.4
0.147578,428.2,19.4,2551.3,114.0,3290.4,255.5,412.9,2540.1,3284.9,215.5,77.9,21.4
0.149578,429.7,17.8,2538.9,147.9,3277.4,323.3,412,2525.9,3285.6,215.1,78.2,21.6
0.151578,430.9,16.4,2524.3,203.4,3248.6,427.6,411.5,2511.2,3286.1,214.8,78.6,21.8
0.153578,431.9,15.5,2507.9,279.5,3205.5,547.4,411.6,2496.2,3286.3,214.5,78.9,21.9
0.155578,432.6,15.4,2488.2,349.6,3170.7,623.6,412.2,2480.8,3286,214.1,79,21.6
0.157578,433.0,16.1,2466.1,391.0,3164.1,665.5,413.5,2465.1,3285.1,213.7,79.1,20.8
0.159578,432.8,17.8,2452.2,395.8,3192.2,716.0,415.4,2449.1,3283.6,213.2,79,19.8
0.161578,431.8,21.0,2441.9,375.5,3231.3,725.7,418.1,2433,3281.3,212.8,78.8,18.6
0.163578,430.6,26.9,2418.3,340.7,3240.9,615.0,421.6,2416.8,3278.3,212.3,78.5,17.3
0.165578,430.0,36.4,2391.1,295.0,3233.5,455.3,425.8,2400.4,3274.3,211.8,78,16.1
0.167578,430.2,50.6,2376.6,253.5,3232.2,344.7,430.8,2384,3269.4,211.2,77.5,14.7
0.169578,431.5,73.5,2380.0,232.4,3235.5,305.2,436.6,2367.6,3263.5,210.7,77.1,13.1
0.171578,433.4,109.3,2394.9,235.0,3240.3,323.4,443.2,2351.3,3256.6,210.1,76.7,11.6
0.173578,437.1,164.9,2403.8,255.8,3241.8,358.0,450.5,2335.1,3248.5,209.5,76.4,10.5
0.175578,446.3,224.5,2385.2,288.5,3233.8,351.7,458.5,2319,3239.4,208.9,76.3,10.3
0.177578,463.5,263.0,2331.2,315.5,3225.0,291.2,467.2,2303.1,3229.1,208.2,76.3,11.4
0.179578,485.8,264.4,2256.4,308.9,3224.7,213.3,476.5,2287.5,3217.7,207.6,76.5,13.4
0.181578,505.8,240.1,2201.1,276.3,3227.0,161.4,486.3,2272,3205.2,207,76.7,15.8
0.183578,522.3,209.9,2176.1,246.6,3225.3,136.3,496.6,2256.9,3191.7,206.3,76.9,18
0.185578,535.2,185.5,2174.5,234.1,3220.3,130.0,507.2,2242.1,3177.1,205.6,77.2,19.5
0.187578,546.6,165.8,2184.0,236.4,3215.8,134.7,518.1,2227.6,3161.6,205,77.4,20.1
0.189578,557.4,149.0,2197.5,247.8,3214.5,151.5,529.2,2213.4,3145.2,204.3,77.6,20.2
0.191578,566.5,135.0,2205.3,252.4,3213.7,180.6,540.4,2199.6,3127.9,203.6,77.8,20
0.193578,574.2,122.8,2201.8,236.8,3207.1,223.2,551.5,2186.1,3109.8,202.9,78,19.7
0.195578,579.3,115.3,2189.8,208.6,3190.2,272.9,562.5,2173.1,3091.1,202.2,78.2,19.6
0.197578,582.5,111.7,2173.4,183.1,3156.4,324.7,573.2,2160.4,3071.9,201.6,78.3,19.7
0.199578,584.4,109.1,2153.8,167.9,3102.7,374.9,583.5,2148.1,3052.2,200.9,78.4,19.8
0.201578,586.2,105.5,2136.3,164.7,3054.4,422.2,593.2,2136.2,3032.1,200.2,78.5,19.9
0.203578,588.6,100.6,2123.1,169.7,3028.1,478.0,602.4,2124.6,3011.8,199.5,78.5,19.9
0.205578,591.3,95.1,2112.6,176.4,3016.6,528.3,610.8,2113.5,2991.4,198.9,78.5,19.7
0.207578,593.5,91.7,2098.8,172.4,3001.7,547.7,618.3,2102.6,2971.1,198.2,78.4,19.2
0.209578,595.0,95.9,2083.7,150.8,2982.3,542.9,624.8,2092.2,2950.8,197.6,78.2,18.5
0.211578,596.0,113.5,2076.5,128.8,2964.0,556.0,630.3,2082,2930.8,197,78,17.6
0.213578,597.3,150.3,2075.7,116.2,2938.0,589.2,634.6,2072.2,2911.2,196.3,77.7,16.8
0.215578,597.8,202.7,2075.2,113.2,2892.6,589.4,637.7,2062.6,2892,195.7,77.4,15.9
0.217578,595.5,259.1,2069.5,114.7,2827.0,506.0,639.5,2053.4,2873.5,195.2,77,15
0.219578,592.7,300.4,2057.4,112.7,2769.3,370.3,640,2044.4,2855.6,194.6,76.6,14.1
0.221578,590.5,318.3,2045.0,106.4,2740.3,269.5,639,2035.7,2838.5,194.1,76.1,13.1
0.223578,581.4,319.6,2034.1,103.0,2729.0,212.3,636.7,2027.2,2822.2,193.6,75.6,12.2
0.225578,566.7,297.7,2023.9,105.8,2725.9,186.5,632.9,2018.9,2806.8,193.2,75,11.4
0.227578,561.0,259.9,2011.7,109.8,2724.4,172.1,627.7,2010.9,2792.5,192.8,74.4,10.7
0.229578,567.7,226.2,1997.7,110.6,2723.1,160.7,621.1,2003,2779.1,192.5,73.7,10
0.231578,580.1,203.1,1984.8,108.2,2722.3,152.6,613.1,1995.4,2766.9,192.2,72.9,9.4
0.233578,594.0,183.9,1974.5,103.1,2722.0,147.7,603.7,1987.9,2755.7,191.9,72.2,8.8
0.235578,604.8,168.0,1970.2,95.4,2723.0,145.4,593.1,1980.7,2745.7,191.8,71.4,8.1
0.237578,612.1,155.9,1971.0,86.3,2726.2,143.9,581.3,1973.6,2736.8,191.6,70.6,7.3
0.239578,616.6,149.4,1972.7,77.6,2730.1,140.9,568.4,1966.6,2729,191.6,70,6.3
0.241578,618.4,149.3,1970.6,72.2,2730.7,137.4,554.5,1959.9,2722.2,191.6,69.4,5.3
0.243578,617.3,153.4,1962.5,70.3,2724.7,136.4,539.8,1953.3,2716.6,191.6,69,4.5
0.245578,613.8,162.8,1952.0,71.3,2714.0,136.9,524.2,1946.9,2711.9,191.8,68.7,4.1
0.247578,609.1,185.6,1943.0,74.4,2703.4,135.9,508.1,1940.7,2708.2,191.9,68.6,4
0.249578,603.0,233.1,1936.9,81.1,2697.9,133.9,491.4,1934.7,2705.4,192.2,68.6,4.3
0.251578,591.3,301.6,1932.2,91.6,2701.7,136.8,474.5,1928.9,2703.4,192.5,68.7,4.7
0.253578,564.1,383.0,1925.2,100.1,2714.8,146.1,457.3,1923.3,2702.2,192.8,68.8,5.3
0.255578,523.5,453.4,1917.6,95.7,2730.4,151.7,440.2,1918,2701.7,193.2,69,6.1
0.257578,474.6,499.7,1913.1,83.9,2740.3,146.9,423.2,1912.9,2701.7,193.6,69.1,7
0.259578,417.6,503.7,1912.2,75.1,2741.4,133.7,406.5,1908,2702.3,194,69.2,8.3
0.261578,366.7,466.6,1913.3,73.4,2739.2,120.4,390.3,1903.4,2703.3,194.5,69.1,9.7
0.263578,327.2,416.5,1914.5,78.5,2738.3,111.0,374.8,1899.2,2704.6,195,69,11
0.265578,301.1,373.8,1913.6,89.6,2738.8,108.2,360,1895.2,2706.1,195.5,68.8,12.1
0.267578,282.3,320.9,1908.3,107.0,2738.0,116.1,346.1,1891.6,2707.8,196.1,68.5,12.9
0.269578,269.2,247.8,1895.0,132.4,2733.4,144.3,333.3,1888.3,2709.5,196.6,68.1,13.7
0.271578,262.7,187.9,1875.9,155.0,2723.4,190.7,321.7,1885.3,2711.3,197.1,67.5,14.4
0.273578,260.8,149.1,1858.7,165.2,2707.8,241.4,311.4,1882.7,2712.9,197.6,66.9,14.8
0.275578,262.5,127.8,1849.7,172.7,2690.2,283.2,302.5,1880.5,2714.5,198.1,66.2,15
0.277578,266.8,118.1,1845.1,198.1,2676.8,314.8,295,1878.7,2715.8,198.6,65.5,14.8
0.279578,272.6,121.8,1845.0,262.8,2682.6,315.8,289.2,1877.3,2716.9,199.1,64.8,14.1
0.281578,276.9,141.2,1861.0,353.2,2705.0,270.7,285,1876.2,2717.7,199.6,64.3,13.4
0.283578,277.6,173.4,1897.9,375.1,2724.9,207.9,282.4,1875.6,2718.2,200,63.9,12.8
0.285578,273.5,193.7,1913.5,311.4,2733.9,173.1,281.6,1875.4,2718.3,200.4,63.8,12.6
