time,f1,b1,f2,b2,f3,b3,f1p,f2p,f3p,f0,intensity,harmonicity
0.025234,348.8,75.8,2271.7,887.5,3059.8,138.5,399.4,2253.6,3075.3,233.3,64.2,-36.2
0.027234,373.8,101.5,2298.1,568.0,3080.9,134.8,401.5,2254.9,3069.5,233,65.7,4.8
0.029234,408.2,111.7,2253.1,345.9,3090.3,138.7,404.9,2257,3060.2,232.7,67,17.9
0.031234,435.2,93.9,2232.3,230.4,3083.4,178.2,409.3,2259.7,3047.9,232.4,68.1,19.4
0.033234,444.2,74.5,2240.5,193.6,3047.1,239.5,414.6,2262.7,3033.2,232.1,68.9,14.6
0.035234,445.2,57.4,2256.4,182.1,3000.0,264.0,420.4,2265.8,3017,231.8,69.7,8.4
0.037234,443.9,44.4,2266.9,170.5,2970.5,252.7,426.6,2268.7,3000,231.6,70.4,6.1
0.039234,442.5,35.5,2270.6,156.3,2949.9,233.6,432.8,2271.1,2983,231.3,71.1,7.8
0.041234,441.4,29.7,2270.1,144.9,2937.1,215.7,438.7,2272.8,2966.9,231.2,71.7,10.3
0.043234,441.4,26.0,2268.2,139.3,2933.2,199.6,444.1,2273.6,2952.2,231,72.2,13
0.045234,442.6,23.3,2266.6,138.1,2933.1,182.1,448.8,2273.3,2939.6,230.9,72.7,15.5
0.047234,444.7,21.1,2266.5,143.2,2933.6,169.4,452.7,2271.9,2929.3,230.8,73.1,17.4
0.049234,447.2,19.1,2267.2,157.1,2934.4,162.8,455.7,2269.3,2921.6,230.8,73.4,18.6
0.051234,449.9,17.1,2266.6,180.0,2934.2,156.3,457.8,2265.5,2916.5,230.8,73.6,19.3
0.053234,452.3,15.4,2264.2,203.0,2931.3,144.6,459.1,2260.6,2913.7,230.8,73.8,19.8
0.055234,454.2,13.8,2261.5,220.6,2926.7,129.7,459.7,2254.7,2913.1,230.9,74,20.2
0.057234,455.4,12.5,2260.0,229.3,2923.3,118.7,459.7,2248.1,2914.1,231.1,74.1,20.5
0.059234,456.6,11.2,2256.8,230.4,2923.0,112.6,459.3,2240.7,2916.3,231.2,74.2,20.8
0.061234,458.0,10.0,2248.3,221.8,2925.9,110.3,458.8,2232.9,2919.1,231.4,74.4,21
0.063234,459.7,9.0,2235.2,203.0,2930.0,109.7,458.3,2224.6,2922.1,231.7,74.5,21.1
0.065234,461.5,8.2,2219.2,177.4,2932.8,108.1,458,2215.9,2924.7,232,74.7,21.3
0.067234,463.0,7.6,2203.9,157.7,2931.5,105.4,458,2207,2926.7,232.2,74.8,21.5
0.069234,464.1,7.2,2188.3,146.9,2923.9,104.4,458.5,2197.7,2927.7,232.6,75,22
0.071234,465.0,6.8,2171.6,140.4,2910.1,106.4,459.4,2188.1,2927.6,232.9,75.1,22.5
0.073234,465.6,6.7,2157.6,133.3,2896.1,110.4,460.9,2177.9,2926.4,233.3,75.2,23.1
0.075234,466.4,6.8,2147.2,123.7,2887.6,115.3,462.8,2167.3,2924.2,233.6,75.3,23.5
0.077234,467.2,7.1,2140.7,113.5,2890.3,119.6,465.1,2156,2921.3,234,75.3,23.7
0.079234,468.2,7.5,2135.5,103.4,2903.4,122.9,467.7,2144,2917.8,234.3,75.3,23.5
0.081234,469.4,8.0,2130.2,94.8,2921.6,126.3,470.4,2131.2,2914.1,234.7,75.2,23
0.083234,470.8,8.5,2125.3,90.9,2934.7,132.1,473.1,2117.7,2910.6,235,75.2,22.4
0.085234,472.4,9.0,2120.7,93.8,2939.6,143.6,475.7,2103.5,2907.4,235.4,75,22
0.087234,474.0,9.4,2115.4,105.1,2937.5,158.2,477.9,2088.7,2904.9,235.7,74.9,21.8
0.089234,475.5,9.7,2105.6,126.1,2932.7,169.4,479.7,2073.6,2903.1,236,74.7,22
0.091234,476.8,9.9,2085.4,153.2,2925.1,170.4,481,2058.5,2902.3,236.3,74.5,22.6
0.093234,477.9,10.2,2053.7,165.8,2913.6,160.0,481.8,2043.6,2902.3,236.5,74.3,23.3
0.095234,479.2,10.7,2015.6,149.5,2898.9,140.3,482,2029.3,2903,236.7,74,23.8
0.097234,480.5,11.4,1986.9,118.6,2883.9,119.3,481.7,2015.9,2904.3,236.9,73.8,24
0.099234,481.6,12.4,1972.7,93.9,2871.8,103.9,480.9,2003.9,2905.9,237.1,73.5,23.9
0.101234,482.1,13.8,1971.3,80.9,2869.9,98.0,479.7,1993.4,2907.5,237.2,73.2,23.7
0.103234,481.9,15.5,1975.8,75.2,2879.7,97.2,478.1,1984.8,2909,237.3,72.9,23.3
0.105234,481.0,17.8,1980.2,70.5,2895.6,93.7,476.3,1978.2,2910,237.4,72.4,22.6
0.107234,479.6,20.4,1981.2,65.9,2909.8,86.7,474.4,1973.7,2910.3,237.4,71.9,21.6
0.109234,477.7,23.4,1979.7,62.4,2920.5,78.6,472.5,1971.2,2910,237.4,71.2,20.3
0.111234,475.1,26.7,1977.3,61.9,2928.5,71.8,470.7,1970.6,2908.8,237.3,70.4,18.5
0.113234,471.8,30.0,1976.3,66.3,2933.2,68.8,469,1971.5,2906.9,237.3,69.4,16.6
0.115234,467.4,33.7,1977.6,77.8,2933.5,70.9,467.4,1973.8,2904.4,237.2,68.2,14.7
0.117234,461.9,37.3,1982.4,99.4,2927.1,79.1,466.1,1977,2901.4,237.1,66.8,13
0.119234,454.9,39.8,1992.8,141.2,2911.4,94.6,464.9,1980.7,2898.3,236.9,65.3,11.3
0.121234,449.7,38.1,2003.3,213.6,2885.0,116.5,464,1984.4,2895.3,236.8,63.7,9.7
0.123234,453.2,32.5,1996.7,279.2,2861.4,132.5,463.4,1987.8,2892.6,236.6,62.2,8.2
0.125234,462.8,27.3,1981.1,299.2,2857.0,139.4,462.9,1990.5,2890.4,236.4,60.8,6.9
0.127234,471.2,25.3,1975.5,281.4,2879.0,136.8,462.6,1992.2,2889.1,236.3,59.8,5.9
0.129234,476.8,27.5,1976.3,251.8,2912.8,118.1,462.5,1992.8,2888.6,236.1,59,5.9
