time,f1,b1,f2,b2,f3,b3,f1p,f2p,f3p,f0,intensity,harmonicity
0.025408,285.2,62.9,2567.2,493.4,3193.9,441.2,350.3,2637.1,3446.4,221.4,65.2,8.5
0.027408,288.4,64.7,2581.3,501.0,3203.3,504.6,350.4,2637.2,3447.7,221.6,66.1,9.8
0.029408,292.8,66.3,2599.0,466.6,3232.7,575.4,350.5,2637.4,3450,221.8,66.9,11
0.031408,297.7,67.2,2625.4,384.7,3289.2,712.9,350.7,2637.7,3453.1,222,67.6,12.1
0.033408,301.7,68.4,2646.1,278.2,3423.4,898.9,351,2638,3457.1,222.2,68.2,13.1
0.035408,305.7,72.4,2651.8,183.9,3637.1,793.0,351.3,2638.4,3461.9,222.4,68.8,14
0.037408,311.6,82.2,2648.1,121.4,3674.1,504.8,351.7,2638.8,3467.5,222.7,69.2,14.7
0.039408,320.4,97.4,2642.6,90.4,3639.9,348.5,352.1,2639.3,3473.8,222.9,69.6,15.4
0.041408,332.7,114.9,2638.2,77.2,3598.0,255.9,352.5,2640,3480.9,223.1,69.9,16
0.043408,344.4,125.9,2636.0,75.5,3573.2,205.0,353,2640.7,3488.5,223.4,70.1,16.5
0.045408,352.6,128.5,2635.7,78.9,3564.6,175.1,353.6,2641.4,3496.8,223.7,70.2,17.2
0.047408,358.4,126.4,2637.0,82.2,3562.5,158.4,354.2,2642.3,3505.6,223.9,70.2,18.1
0.049408,363.6,123.5,2640.4,82.6,3561.0,154.7,354.8,2643.2,3514.8,224.2,70.1,19.2
0.051408,369.9,121.2,2646.3,81.4,3560.5,163.9,355.5,2644.3,3524.4,224.5,70,20.2
0.053408,377.3,119.6,2652.9,80.2,3564.5,184.4,356.2,2645.4,3534.3,224.7,69.8,21.1
0.055408,385.8,118.7,2657.9,79.2,3573.8,207.6,357,2646.6,3544.4,225,69.5,21.5
0.057408,395.6,118.2,2659.9,77.9,3582.6,218.0,357.8,2647.9,3554.7,225.3,69.3,21.5
0.059408,404.4,117.7,2658.6,76.6,3585.0,208.2,358.6,2649.4,3565.1,225.6,69.1,21
0.061408,411.0,117.2,2655.2,75.4,3586.1,190.3,359.5,2650.9,3575.5,225.9,69,20.3
0.063408,414.2,117.8,2650.7,73.9,3591.6,178.9,360.3,2652.5,3585.7,226.2,69,19.8
0.065408,414.9,119.8,2645.4,72.2,3602.1,176.1,361.2,2654.2,3595.9,226.5,69,19.6
0.067408,413.9,123.4,2639.9,70.3,3616.4,178.6,362.1,2656,3605.7,226.8,69.2,20
0.069408,412.0,127.7,2636.2,69.1,3630.5,179.8,363.1,2657.9,3615.3,227.1,69.5,20.6
0.071408,409.4,132.6,2636.2,69.3,3640.9,175.6,364,2659.9,3624.5,227.4,69.8,21.4
0.073408,406.6,136.9,2641.1,70.7,3643.7,169.7,364.9,2662,3633.2,227.7,70.2,22.2
0.075408,404.2,140.0,2650.0,71.6,3641.1,168.5,365.9,2664.2,3641.5,228,70.5,22.8
0.077408,402.6,141.8,2662.2,70.3,3635.4,179.1,366.8,2666.5,3649.1,228.3,70.7,23
0.079408,400.9,142.7,2676.4,66.2,3628.5,207.9,367.7,2668.9,3656.1,228.6,70.9,23.1
0.081408,398.0,144.3,2692.8,59.6,3621.3,259.9,368.6,2671.3,3662.4,229,71.1,23.1
0.083408,395.1,146.2,2708.3,51.4,3619.7,305.3,369.5,2673.8,3667.9,229.3,71.1,23.3
0.085408,393.4,147.2,2720.9,42.6,3627.6,295.7,370.4,2676.4,3672.7,229.6,71.2,23.6
0.087408,392.5,147.8,2730.5,35.0,3639.2,239.8,371.3,2679,3676.7,230,71.1,24.2
0.089408,390.9,149.3,2736.9,30.3,3647.7,190.6,372.1,2681.7,3679.8,230.3,71.1,25
0.091408,388.0,152.3,2741.7,27.5,3655.1,160.0,372.9,2684.5,3682,230.7,71,25.9
0.093408,384.1,155.5,2745.2,26.4,3662.7,148.2,373.6,2687.2,3683.4,231.1,70.9,26.6
0.095408,378.9,158.2,2748.5,26.2,3672.5,151.1,374.4,2690,3683.9,231.4,70.8,27.2
0.097408,372.3,159.9,2751.6,26.8,3685.4,167.0,375,2692.8,3683.4,231.8,70.7,27.4
0.099408,366.2,160.9,2753.5,27.8,3696.9,185.6,375.6,2695.6,3682.1,232.2,70.7,27.5
0.101408,361.7,162.6,2752.9,29.7,3697.9,189.6,376.2,2698.4,3679.9,232.6,70.7,27.4
0.103408,359.9,165.3,2748.8,32.7,3686.2,173.9,376.7,2701.2,3676.8,233.1,70.7,27.4
0.105408,360.0,167.6,2741.3,37.2,3671.6,155.6,377.1,2704,3672.8,233.5,70.8,27.3
0.107408,360.7,168.0,2730.6,44.2,3660.3,147.4,377.5,2706.7,3668.1,233.9,70.9,27.4
0.109408,360.6,166.3,2717.8,54.6,3653.6,154.6,377.8,2709.3,3662.5,234.4,70.9,27.4
0.111408,358.9,163.7,2704.5,69.0,3648.8,181.9,378,2711.9,3656.2,234.9,71,27.5
0.113408,355.5,160.8,2699.1,83.2,3642.8,233.2,378.2,2714.3,3649.2,235.4,71.1,27.5
0.115408,350.5,157.0,2705.5,92.0,3633.0,308.4,378.2,2716.7,3641.5,235.9,71.2,27.5
0.117408,344.9,151.8,2714.9,95.1,3619.1,389.6,378.2,2719,3633.2,236.4,71.2,27.4
0.119408,339.3,146.6,2713.9,98.0,3603.9,446.9,378.1,2721.2,3624.4,236.9,71.2,27.2
0.121408,333.6,141.9,2697.5,103.8,3593.8,456.5,377.9,2723.2,3615,237.4,71.3,27.1
0.123408,330.4,138.1,2670.9,106.2,3596.0,392.0,377.6,2725.1,3605.3,238,71.3,27
0.125408,329.9,135.3,2648.4,102.6,3600.7,298.8,377.2,2726.8,3595.1,238.6,71.4,27.2
0.127408,331.1,133.4,2641.9,98.4,3596.7,230.7,376.8,2728.4,3584.7,239.1,71.5,27.7
0.129408,333.6,132.9,2650.9,97.2,3585.6,200.9,376.2,2729.8,3574,239.7,71.5,28.4
0.131408,337.9,134.0,2666.8,98.2,3572.3,198.8,375.6,2731,3563.2,240.3,71.6,29.3
0.133408,343.4,136.5,2679.5,99.7,3562.5,218.1,374.8,2732.1,3552.3,240.9,71.7,29.9
0.135408,350.1,139.6,2686.5,101.1,3559.9,251.6,374,2732.9,3541.3,241.5,71.8,30.2
0.137408,357.2,143.0,2692.0,103.5,3569.0,295.5,373,2733.5,3530.4,242.1,71.8,29.8
0.139408,363.2,146.8,2701.1,107.6,3584.8,343.0,372,2734,3519.5,242.8,71.8,29
0.141408,368.0,151.9,2713.1,111.9,3593.0,400.2,370.9,2734.2,3508.9,243.4,71.7,28
0.143408,370.4,158.0,2718.9,114.8,3577.9,464.2,369.7,2734.3,3498.4,244,71.6,27.1
0.145408,371.7,163.5,2715.3,116.2,3532.5,522.0,368.4,2734.1,3488.2,244.6,71.5,26.4
0.147408,373.5,166.9,2707.2,116.2,3467.3,551.5,367,2733.7,3478.4,245.3,71.3,26
0.149408,374.8,168.6,2701.7,117.1,3411.5,554.4,365.5,2733.1,3468.9,245.9,71.2,25.8
0.151408,373.4,169.4,2700.0,123.9,3371.6,549.5,363.9,2732.4,3459.9,246.5,71,25.7
0.153408,369.3,168.3,2701.5,138.4,3353.0,543.3,362.3,2731.4,3451.3,247.1,70.8,25.5
0.155408,364.9,164.3,2706.0,156.4,3353.7,535.2,360.6,2730.3,3443.2,247.8,70.6,25.1
0.157408,363.2,158.3,2714.6,167.4,3368.9,526.2,358.8,2728.9,3435.6,248.4,70.4,24.4
0.159408,365.0,152.9,2725.6,160.7,3390.1,521.3,357,2727.4,3428.6,249,70.2,23.4
0.161408,369.2,147.9,2736.5,138.3,3414.9,522.8,355.1,2725.7,3422.2,249.6,70.1,22.3
0.163408,373.3,143.5,2743.1,112.5,3442.1,530.1,353.1,2723.9,3416.3,250.2,70,21.4
0.165408,376.0,140.3,2744.8,89.7,3474.7,535.1,351.1,2722,3411.1,250.8,70,20.7
0.167408,377.3,140.2,2742.6,73.2,3500.4,526.8,349,2719.9,3406.4,251.4,70.2,20.3
0.169408,377.8,143.0,2740.0,61.3,3511.4,512.8,346.9,2717.7,3402.4,251.9,70.4,20
0.171408,377.2,147.1,2740.2,52.3,3507.8,512.0,344.8,2715.4,3398.9,252.5,70.8,19.9
0.173408,375.1,149.5,2743.7,46.0,3496.1,537.2,342.6,2713.1,3396,253.1,71.2,20
0.175408,371.8,149.2,2748.7,41.5,3480.3,589.6,340.5,2710.6,3393.7,253.6,71.6,20.4
0.177408,367.2,146.2,2753.2,39.2,3455.7,668.5,338.3,2708.1,3391.9,254.2,72.1,21.3
0.179408,361.6,141.7,2755.5,40.7,3414.8,753.1,336.1,2705.6,3390.6,254.7,72.5,22.7
0.181408,354.9,136.5,2755.2,48.1,3351.1,804.3,333.9,2703.1,3389.8,255.3,72.9,24.3
0.183408,349.1,131.2,2751.2,62.9,3290.3,772.8,331.7,2700.5,3389.4,255.8,73.2,25.8
0.185408,343.8,125.9,2740.6,86.0,3260.3,683.6,329.5,2698,3389.4,256.4,73.5,26.8
0.187408,338.6,120.7,2723.4,110.3,3270.6,604.0,327.3,2695.5,3389.8,256.9,73.7,27.4
0.189408,333.6,115.3,2702.7,130.5,3300.4,547.4,325.2,2693.1,3390.4,257.4,73.9,27.8
0.191408,330.0,110.1,2685.1,143.2,3322.2,502.7,323.1,2690.7,3391.3,258,74.1,28
0.193408,327.9,105.4,2677.6,149.2,3319.0,471.9,321,2688.4,3392.5,258.5,74.2,28
0.195408,325.3,100.4,2678.3,154.5,3308.8,461.6,319,2686.2,3393.8,259,74.3,28
0.197408,321.2,95.5,2681.7,160.6,3315.6,476.9,317,2684.1,3395.2,259.6,74.4,27.7
0.199408,316.8,91.0,2683.8,163.3,3338.9,509.7,315.1,2682.2,3396.6,260.1,74.4,27.2
0.201408,313.2,87.3,2685.1,158.6,3365.4,552.9,313.3,2680.3,3398.1,260.6,74.5,26.6
0.203408,310.4,84.1,2685.8,152.2,3383.5,592.0,311.5,2678.7,3399.5,261.2,74.5,26.2
0.205408,307.7,80.3,2684.4,150.7,3398.1,599.6,309.8,2677.1,3400.7,261.7,74.6,26.1
0.207408,304.7,75.0,2680.4,155.2,3417.9,545.9,308.2,2675.7,3401.8,262.3,74.7,26.4
0.209408,301.2,68.4,2679.1,162.6,3439.8,461.5,306.7,2674.5,3402.7,262.8,74.9,26.9
0.211408,296.5,60.4,2685.8,168.7,3459.7,392.8,305.2,2673.5,3403.4,263.3,75,27.6
0.213408,291.9,52.7,2695.4,171.3,3477.2,358.6,303.9,2672.7,3403.7,263.9,75.2,28.3
0.215408,287.7,45.7,2699.6,176.4,3495.8,343.9,302.6,2672,3403.7,264.4,75.4,28.9
0.217408,284.8,40.4,2696.4,188.2,3512.3,340.0,301.5,2671.5,3403.3,264.9,75.6,29.3
0.219408,282.9,36.8,2692.1,203.9,3522.6,347.2,300.4,2671.2,3402.5,265.5,75.7,29.8
0.221408,281.8,34.4,2693.3,218.6,3521.1,372.7,299.5,2671.1,3401.3,266,75.9,30.2
0.223408,281.3,33.0,2699.2,232.2,3504.3,410.6,298.6,2671.1,3399.5,266.5,75.9,30.3
0.225408,281.0,31.8,2705.8,252.9,3471.9,450.4,297.9,2671.4,3397.3,267,76,30.2
0.227408,280.9,30.7,2713.2,282.5,3431.4,484.9,297.3,2671.7,3394.5,267.6,75.9,29.6
0.229408,280.9,29.5,2721.3,311.2,3388.1,515.5,296.8,2672.3,3391.2,268.1,75.8,28.6
0.231408,281.1,28.2,2720.1,322.3,3349.2,520.5,296.5,2673,3387.4,268.6,75.7,27.5
0.233408,281.4,26.9,2703.0,315.1,3325.1,483.2,296.2,2673.8,3382.9,269.1,75.4,26.4
0.235408,281.8,25.4,2677.7,302.2,3312.1,430.3,296.1,2674.8,3378,269.6,75.2,25.7
0.237408,282.6,23.9,2650.0,289.3,3303.0,384.6,296,2675.9,3372.5,270,74.9,25.3
0.239408,284.0,23.6,2623.7,274.9,3296.4,350.6,296.1,2677.1,3366.4,270.5,74.5,25.3
0.241408,286.4,25.2,2599.3,255.3,3294.5,321.0,296.3,2678.3,3359.8,271,74.2,25.4
0.243408,289.9,29.1,2583.2,234.3,3297.8,300.4,296.6,2679.7,3352.7,271.4,73.8,25.4
0.245408,294.6,35.1,2578.9,214.4,3303.0,294.2,297.1,2681.1,3345.1,271.8,73.5,25.4
0.247408,299.5,41.3,2587.2,201.2,3306.7,306.8,297.6,2682.5,3337,272.2,73.3,25.1
0.249408,304.1,46.9,2602.8,194.3,3309.3,331.9,298.2,2684,3328.5,272.6,73.1,24.6
0.251408,308.0,51.8,2619.2,189.4,3311.3,353.1,299,2685.5,3319.6,273,73,24.1
0.253408,311.0,55.6,2631.5,183.2,3312.5,357.8,299.8,2686.9,3310.3,273.3,73,23.8
0.255408,312.6,57.8,2643.4,177.9,3313.6,361.3,300.7,2688.3,3300.6,273.7,73.1,23.9
0.257408,312.4,57.5,2656.9,177.0,3313.8,378.8,301.8,2689.7,3290.6,274,73.2,24.3
0.259408,311.1,55.8,2671.1,177.4,3311.1,405.2,302.9,2691,3280.4,274.3,73.4,25.2
0.261408,309.4,53.9,2682.1,173.6,3304.9,429.3,304.1,2692.3,3270,274.6,73.6,26.1
0.263408,307.8,52.4,2686.5,164.6,3296.0,444.4,305.3,2693.4,3259.3,274.9,73.8,27.2
0.265408,306.3,51.2,2685.4,153.1,3283.8,453.7,306.7,2694.5,3248.5,275.1,74,28.1
0.267408,304.9,50.1,2681.8,141.5,3266.6,462.1,308.1,2695.4,3237.7,275.4,74.2,28.9
0.269408,304.0,49.1,2679.1,132.5,3244.1,476.3,309.5,2696.2,3226.8,275.6,74.4,29.8
0.271408,303.3,48.1,2679.8,126.3,3214.3,507.6,311.1,2696.8,3215.8,275.8,74.5,30.7
0.273408,302.6,47.1,2684.8,122.7,3181.3,564.0,312.7,2697.3,3205,276,74.6,31.4
0.275408,302.0,46.2,2693.7,118.2,3147.5,658.6,314.3,2697.7,3194.2,276.2,74.7,32
0.277408,302.0,46.0,2703.2,110.6,3122.5,771.9,315.9,2697.8,3183.5,276.4,74.7,32.3
0.279408,303.0,47.2,2710.1,102.3,3111.4,855.0,317.7,2697.8,3172.9,276.6,74.7,32.4
0.281408,305.6,50.3,2713.9,97.4,3114.6,866.8,319.4,2697.5,3162.6,276.7,74.6,32.5
0.283408,309.7,55.0,2715.9,95.3,3125.4,833.1,321.2,2697.1,3152.5,276.9,74.5,32.4
0.285408,315.3,60.5,2717.1,94.6,3135.8,792.9,322.9,2696.5,3142.7,277,74.3,32.4
0.287408,321.2,65.4,2717.2,97.0,3139.1,757.0,324.7,2695.7,3133.1,277.2,74.2,32.4
0.289408,326.9,69.4,2715.5,104.0,3136.5,720.7,326.5,2694.8,3123.9,277.3,74,32.4
0.291408,332.1,73.0,2712.0,116.3,3134.7,688.7,328.3,2693.6,3115,277.4,73.7,32.4
0.293408,336.3,76.2,2708.6,133.1,3136.8,671.0,330.1,2692.2,3106.5,277.6,73.5,32.3
0.295408,340.3,79.2,2706.8,157.1,3139.0,662.1,331.9,2690.7,3098.4,277.7,73.3,32
0.297408,344.4,81.9,2708.1,186.9,3135.5,652.2,333.7,2689,3090.6,277.8,73,31.5
0.299408,349.2,84.3,2713.6,220.6,3124.4,635.7,335.5,2687.1,3083.3,277.9,72.7,30.8
0.301408,355.2,86.3,2724.3,255.6,3105.7,609.7,337.3,2685.1,3076.4,278,72.5,30
0.303408,361.1,87.4,2738.0,290.8,3083.1,570.5,339,2683,3069.9,278.1,72.2,29.3
0.305408,366.2,87.6,2752.7,339.4,3057.8,507.2,340.7,2680.7,3063.8,278.2,72,28.8
0.307408,369.2,87.6,2761.5,405.7,3036.5,425.2,342.3,2678.3,3058.1,278.3,71.7,28.5
0.309408,369.9,87.7,2754.1,466.1,3026.7,343.9,344,2675.9,3052.9,278.4,71.6,28.4
0.311408,369.1,88.1,2733.7,470.0,3025.7,292.3,345.5,2673.3,3048.1,278.5,71.4,28.4
0.313408,367.6,88.4,2715.6,422.2,3027.1,270.1,347.1,2670.7,3043.6,278.6,71.3,28.5
0.315408,366.4,88.5,2705.1,364.4,3029.8,259.1,348.6,2668,3039.6,278.7,71.2,28.6
0.317408,366.2,88.1,2699.7,316.4,3034.1,249.0,350,2665.3,3035.9,278.8,71.1,28.8
0.319408,367.7,86.6,2694.7,281.2,3038.2,234.8,351.4,2662.6,3032.5,279,71,29.2
0.321408,370.1,84.0,2688.6,250.8,3041.4,216.2,352.7,2660,3029.5,279.1,70.8,29.5
0.323408,371.9,81.3,2683.7,227.5,3044.4,198.1,354,2657.3,3026.9,279.2,70.7,29.9
0.325408,372.7,79.1,2680.0,211.3,3046.7,177.3,355.2,2654.7,3024.5,279.3,70.5,30.3
0.327408,372.5,76.9,2675.7,201.5,3046.4,152.7,356.3,2652.2,3022.4,279.4,70.3,30.6
0.329408,371.6,73.8,2669.3,193.2,3043.6,125.8,357.4,2649.7,3020.6,279.6,70.1,31.1
0.331408,369.6,69.3,2660.4,185.8,3040.3,100.2,358.4,2647.4,3019,279.7,69.9,31.6
0.333408,366.4,64.6,2649.2,183.0,3038.2,81.3,359.3,2645.1,3017.6,279.9,69.6,31.7
0.335408,361.5,61.0,2634.5,184.3,3036.5,69.5,360.1,2643,3016.4,280,69.4,31.4
0.337408,355.8,59.8,2622.2,184.0,3033.2,67.9,360.9,2641.1,3015.4,280.2,69.1,30.5
0.339408,350.4,60.3,2617.6,179.6,3026.1,77.7,361.6,2639.3,3014.6,280.3,68.8,29
0.341408,346.5,61.4,2616.5,171.1,3014.5,98.6,362.2,2637.7,3013.9,280.5,68.5,27.4
0.343408,345.0,61.7,2611.5,158.4,3001.9,124.1,362.7,2636.3,3013.3,280.7,68.1,25.7
0.345408,345.1,61.1,2602.2,144.4,2991.1,153.2,363.2,2635.1,3012.8,280.8,67.7,24.4
0.347408,344.9,60.4,2593.4,137.4,2985.7,182.1,363.5,2634.1,3012.5,281,67.2,23.3
0.349408,342.3,60.4,2584.5,143.8,2984.7,199.4,363.8,2633.3,3012.2,281.2,66.5,22.4
0.351408,335.1,61.1,2567.6,168.9,2984.9,188.7,364,2632.7,3012,281.3,65.7,21.6
0.353408,323.3,58.7,2537.6,204.2,2987.1,168.6,364.2,2632.4,3011.9,281.5,64.7,20.8
0.355408,310.6,49.1,2502.5,239.8,2992.5,173.0,364.2,2632.2,3011.9,281.7,63.5,20.2
