time,f1,b1,f2,b2,f3,b3,f1p,f2p,f3p,f0,intensity,harmonicity
0.025347,233.4,35.7,2739.0,596.9,3299.5,288.3,330.8,2657.2,3454.2,214.4,73.3,16.3
0.027347,240.6,47.6,2719.1,478.7,3326.4,252.5,330.8,2657.5,3455.9,215,72.7,16
0.029347,250.2,63.0,2683.4,416.9,3345.9,242.4,330.8,2657.9,3458.7,215.5,72.1,15.4
0.031347,262.4,78.8,2650.3,376.5,3375.1,294.2,330.7,2658.5,3462.6,216.1,71.3,14.8
0.033347,278.6,95.1,2639.6,311.2,3444.9,413.5,330.6,2659.3,3467.5,216.7,70.5,14.1
0.035347,300.7,112.5,2640.2,232.9,3537.4,479.0,330.6,2660.3,3473.4,217.3,69.5,13.4
0.037347,329.1,120.7,2644.1,201.3,3544.9,438.1,330.5,2661.5,3480.3,217.9,68.4,12.5
0.039347,361.1,112.9,2651.1,211.2,3503.7,383.8,330.5,2662.8,3488.1,218.6,67.3,11.4
0.041347,390.7,95.9,2658.5,240.9,3475.5,364.2,330.4,2664.3,3496.7,219.2,66.3,10.1
0.043347,408.8,83.2,2663.7,265.4,3466.8,370.5,330.4,2665.9,3506.1,219.8,65.8,8.7
0.045347,409.6,83.6,2664.6,259.8,3478.2,374.6,330.4,2667.7,3516.2,220.5,65.8,7.7
0.047347,397.2,95.3,2656.2,225.6,3500.8,374.5,330.4,2669.7,3527,221.1,66.4,7.2
0.049347,379.7,111.2,2644.1,184.8,3521.6,375.6,330.5,2671.8,3538.2,221.7,67.2,7.5
0.051347,362.6,124.4,2637.8,154.0,3548.6,382.6,330.6,2674,3549.9,222.3,68.1,8.3
0.053347,348.4,132.0,2638.0,134.2,3597.0,390.4,330.8,2676.4,3562,222.9,69,9.4
0.055347,339.3,138.0,2641.0,121.1,3661.8,389.5,331,2678.9,3574.3,223.4,69.7,10.6
0.057347,335.9,145.7,2646.4,115.6,3727.3,386.9,331.3,2681.5,3586.7,224,70.3,11.6
0.059347,335.2,151.1,2659.1,124.1,3767.3,377.6,331.6,2684.2,3599.2,224.5,70.7,12.5
0.061347,332.1,149.1,2679.2,148.7,3761.5,357.0,332,2687,3611.7,225,71,13.5
0.063347,327.1,140.2,2693.0,177.0,3738.5,330.6,332.5,2689.9,3624.1,225.5,71.1,14.4
0.065347,324.0,129.7,2693.4,198.5,3717.9,311.1,333.1,2692.9,3636.2,226,71.2,15.2
0.067347,324.9,123.0,2690.4,211.3,3696.4,309.0,333.8,2696,3647.9,226.4,71.2,15.9
0.069347,329.3,121.6,2695.6,214.1,3669.5,326.7,334.5,2699.1,3659.3,226.9,71.1,16.5
0.071347,336.4,125.3,2709.0,203.1,3642.6,349.6,335.3,2702.3,3670.1,227.3,71,16.9
0.073347,345.1,133.5,2723.2,175.8,3630.0,357.4,336.3,2705.5,3680.4,227.7,70.9,17.2
0.075347,353.8,144.0,2733.9,137.9,3637.5,345.9,337.3,2708.7,3690,228,70.8,17.6
0.077347,359.1,152.8,2740.7,100.5,3658.2,321.8,338.4,2711.9,3698.9,228.4,70.8,18
0.079347,359.0,158.2,2744.1,72.0,3681.3,291.8,339.5,2715.1,3707,228.7,70.9,18.5
0.081347,357.5,163.1,2745.0,53.2,3699.4,263.1,340.7,2718.3,3714.2,229.1,71.1,19
0.083347,359.6,170.7,2745.9,41.7,3708.6,238.0,342,2721.5,3720.5,229.4,71.3,19.5
0.085347,365.8,177.6,2748.8,35.6,3712.0,222.4,343.4,2724.6,3725.9,229.6,71.6,20
0.087347,371.0,181.0,2753.6,34.7,3718.7,229.5,344.8,2727.7,3730.3,229.9,71.9,20.5
0.089347,371.1,184.2,2758.4,38.0,3736.2,265.1,346.3,2730.7,3733.7,230.2,72.1,20.8
0.091347,365.2,188.4,2761.1,43.5,3767.5,310.0,347.7,2733.6,3736,230.4,72.3,21.1
0.093347,355.5,190.7,2760.4,49.5,3803.5,327.9,349.2,2736.5,3737.4,230.7,72.5,21.3
0.095347,345.6,188.9,2756.0,56.2,3817.6,309.0,350.7,2739.2,3737.7,230.9,72.5,21.5
0.097347,337.7,183.8,2747.8,67.2,3798.2,279.2,352.2,2741.8,3736.9,231.1,72.6,21.8
0.099347,332.2,176.9,2735.7,87.0,3764.0,260.1,353.6,2744.2,3735.2,231.3,72.5,22.1
0.101347,329.3,171.0,2721.0,113.9,3734.0,259.8,355.1,2746.5,3732.4,231.4,72.5,22.3
0.103347,328.5,167.8,2709.8,138.0,3710.9,268.7,356.4,2748.7,3728.7,231.6,72.4,22.6
0.105347,328.9,166.8,2710.1,149.8,3693.7,270.3,357.8,2750.7,3724.1,231.8,72.4,22.9
0.107347,330.2,167.8,2722.5,146.0,3680.0,258.9,359,2752.6,3718.6,231.9,72.3,23.3
0.109347,334.2,172.9,2737.4,131.6,3665.6,248.8,360.1,2754.2,3712.3,232,72.4,23.8
0.111347,343.3,181.4,2748.9,116.8,3650.4,249.9,361.2,2755.7,3705.1,232.1,72.5,24.3
0.113347,356.6,186.0,2758.0,107.9,3636.8,260.5,362.1,2757,3697.3,232.2,72.6,25
0.115347,368.5,182.6,2765.2,107.4,3624.9,278.3,362.9,2758.1,3688.9,232.3,72.8,25.6
0.117347,373.6,177.6,2768.1,115.7,3613.3,296.8,363.5,2759.1,3679.9,232.4,72.9,26.1
0.119347,372.5,175.7,2763.6,128.3,3603.0,305.6,364,2759.8,3670.3,232.5,73.1,26.4
0.121347,369.3,174.5,2754.0,137.0,3596.6,305.2,364.3,2760.4,3660.4,232.5,73.2,26.7
0.123347,367.5,172.2,2746.7,137.3,3594.1,305.4,364.5,2760.8,3650.1,232.6,73.3,27
0.125347,367.7,169.3,2747.2,131.9,3592.9,313.7,364.5,2761,3639.6,232.6,73.4,27.2
0.127347,368.8,167.1,2753.9,124.8,3592.5,330.7,364.3,2761.1,3628.8,232.7,73.4,27.5
0.129347,368.7,167.2,2761.0,118.0,3595.0,349.5,364,2761,3618,232.7,73.4,27.9
0.131347,366.2,169.7,2763.9,112.7,3600.8,359.6,363.5,2760.7,3607.2,232.7,73.3,28.3
0.133347,361.4,172.2,2761.8,109.4,3605.1,361.9,362.8,2760.3,3596.4,232.7,73.3,28.8
0.135347,355.7,172.4,2757.3,108.1,3604.6,365.2,361.9,2759.8,3585.7,232.7,73.3,29.2
0.137347,350.2,170.0,2753.2,108.6,3600.4,370.5,360.9,2759.1,3575.2,232.7,73.3,29.4
0.139347,345.6,166.6,2750.8,111.5,3592.9,376.4,359.7,2758.4,3565,232.7,73.4,29.5
0.141347,341.6,163.5,2749.6,117.8,3581.1,385.6,358.4,2757.5,3555.2,232.7,73.5,29.5
0.143347,338.4,161.6,2749.4,127.2,3565.4,400.4,356.9,2756.6,3545.7,232.6,73.6,29.5
0.145347,336.5,160.9,2750.9,135.5,3549.8,414.8,355.3,2755.7,3536.7,232.6,73.7,29.5
0.147347,336.4,160.7,2754.1,137.5,3539.6,420.2,353.6,2754.7,3528.2,232.6,73.9,29.6
0.149347,336.8,159.7,2756.8,133.5,3535.3,416.7,351.8,2753.7,3520.2,232.6,74,29.9
0.151347,335.8,158.1,2756.1,128.7,3532.4,411.8,350,2752.7,3512.8,232.5,74.1,30.3
0.153347,334.2,156.5,2752.7,125.8,3528.2,407.3,348.1,2751.7,3506,232.5,74.2,30.7
0.155347,334.0,155.7,2749.4,122.9,3523.8,397.3,346.1,2750.7,3499.9,232.4,74.3,31.1
0.157347,335.5,155.7,2747.9,119.6,3520.3,382.1,344.2,2749.8,3494.4,232.4,74.4,31.5
0.159347,336.9,156.4,2747.2,117.7,3516.3,371.1,342.3,2749,3489.5,232.3,74.4,31.8
0.161347,337.2,157.7,2746.0,119.0,3509.6,372.3,340.4,2748.2,3485.4,232.3,74.3,32
0.163347,337.7,159.2,2745.1,122.0,3501.3,384.1,338.5,2747.6,3481.9,232.2,74.3,32.3
0.165347,339.8,160.5,2746.3,123.5,3495.2,398.9,336.8,2747,3479,232.2,74.3,32.4
0.167347,343.2,160.8,2749.9,121.1,3495.2,409.3,335.2,2746.6,3476.8,232.1,74.3,32.4
0.169347,346.2,159.7,2754.2,114.7,3500.7,411.4,333.7,2746.3,3475.2,232.1,74.3,32.1
0.171347,347.6,157.8,2757.7,106.6,3505.6,409.7,332.3,2746.2,3474.2,232,74.3,31.6
0.173347,347.5,156.6,2759.8,99.8,3505.4,413.3,331.2,2746.2,3473.7,232,74.4,31.1
0.175347,346.2,156.5,2760.9,95.3,3500.7,427.1,330.2,2746.4,3473.8,231.9,74.4,30.7
0.177347,344.6,156.9,2761.6,92.2,3494.6,447.3,329.5,2746.7,3474.4,231.8,74.5,30.8
0.179347,343.3,157.2,2761.9,89.1,3490.1,464.7,329,2747.2,3475.3,231.8,74.6,31.3
0.181347,343.3,157.2,2762.0,85.0,3487.3,471.0,328.8,2747.8,3476.7,231.7,74.7,32.3
0.183347,344.7,156.9,2761.9,80.0,3484.7,466.3,328.8,2748.6,3478.4,231.6,74.8,33.5
0.185347,346.8,156.5,2761.7,75.4,3480.7,456.7,329.1,2749.6,3480.3,231.5,74.9,34.5
0.187347,348.6,156.4,2761.2,71.8,3475.6,447.3,329.7,2750.7,3482.4,231.4,75,35.2
0.189347,350.2,156.7,2760.7,68.9,3471.8,438.4,330.6,2751.9,3484.7,231.3,75.1,35.5
0.191347,351.7,157.3,2760.2,66.2,3471.2,430.2,331.9,2753.2,3487.1,231.2,75.1,35.6
0.193347,353.3,158.0,2759.4,63.7,3474.0,424.6,333.4,2754.6,3489.5,231.1,75.1,35.5
0.195347,355.0,158.8,2758.1,61.4,3478.9,423.2,335.2,2756.1,3491.9,231,75.1,35.3
0.197347,356.6,159.4,2756.6,59.4,3484.1,425.1,337.4,2757.6,3494.2,230.9,75.1,34.9
0.199347,358.2,159.8,2755.6,57.7,3488.3,429.3,339.8,2759.1,3496.3,230.7,75.1,34.3
0.201347,359.6,160.0,2755.0,56.2,3490.8,435.9,342.5,2760.7,3498.2,230.6,75.1,33.5
0.203347,360.9,159.9,2754.5,54.5,3491.8,446.3,345.5,2762.2,3499.9,230.4,75.1,32.6
0.205347,362.0,159.7,2754.0,52.4,3491.9,461.9,348.8,2763.6,3501.2,230.3,75.1,31.7
0.207347,362.9,159.2,2753.7,50.2,3491.6,481.9,352.3,2764.9,3502.2,230.1,75.2,31
0.209347,363.4,158.8,2753.6,48.2,3490.9,501.4,356,2766.1,3502.7,229.9,75.2,30.4
0.211347,364.1,158.4,2753.7,46.6,3489.0,515.8,360,2767,3502.8,229.7,75.2,30
0.213347,365.3,158.1,2753.8,45.1,3486.6,524.9,364,2767.8,3502.4,229.5,75.2,29.7
0.215347,366.8,157.8,2754.2,43.7,3486.4,532.4,368.3,2768.3,3501.5,229.3,75.3,29.3
0.217347,368.0,157.5,2755.0,42.8,3492.1,537.5,372.6,2768.5,3500,229,75.3,29
0.219347,368.4,157.1,2756.4,42.5,3502.8,531.6,377.1,2768.4,3498,228.8,75.3,28.7
0.221347,368.6,156.7,2758.3,43.6,3507.9,507.9,381.6,2767.9,3495.3,228.5,75.3,28.5
0.223347,369.8,156.0,2760.1,47.2,3494.2,472.1,386.1,2767,3492.1,228.2,75.3,28.2
0.225347,371.9,155.2,2761.2,54.4,3462.2,430.3,390.5,2765.6,3488.2,227.9,75.2,27.9
0.227347,373.9,154.1,2761.3,65.9,3426.1,387.0,394.9,2763.8,3483.7,227.6,75.2,27.5
0.229347,374.5,152.7,2760.2,81.9,3399.0,352.2,399.3,2761.4,3478.5,227.3,75.1,26.8
0.231347,373.8,150.6,2758.7,103.5,3384.1,334.7,403.5,2758.4,3472.8,226.9,75,26
0.233347,373.1,147.6,2756.8,130.3,3378.6,335.3,407.5,2754.9,3466.4,226.6,74.9,25.1
0.235347,373.6,144.2,2753.3,156.1,3382.8,342.4,411.3,2750.7,3459.5,226.2,74.8,24.3
0.237347,376.0,141.2,2747.1,166.4,3402.4,333.0,414.8,2745.9,3452,225.8,74.7,23.8
0.239347,380.4,139.0,2739.0,154.0,3433.6,294.7,418.1,2740.4,3443.9,225.5,74.6,23.6
0.241347,387.1,137.0,2730.6,129.7,3460.5,244.9,421.1,2734.2,3435.3,225.1,74.4,23.7
0.243347,395.9,133.7,2722.9,106.8,3474.8,207.5,423.8,2727.4,3426.2,224.6,74.3,23.8
0.245347,405.9,127.8,2715.3,90.4,3476.7,190.1,426.1,2719.8,3416.6,224.2,74.1,24
0.247347,414.8,119.3,2706.7,80.6,3468.8,187.9,427.9,2711.5,3406.7,223.8,74,23.9
0.249347,420.8,111.0,2696.9,76.5,3454.5,189.9,429.4,2702.4,3396.3,223.3,73.8,23.5
0.251347,423.7,104.3,2684.6,77.1,3438.3,187.3,430.5,2692.6,3385.6,222.9,73.6,22.9
0.253347,424.7,98.7,2669.6,79.5,3425.5,178.8,431.1,2682.1,3374.6,222.4,73.4,22.2
0.255347,424.3,93.2,2655.1,80.1,3418.5,173.4,431.2,2670.9,3363.3,221.9,73.2,21.6
0.257347,422.8,87.3,2645.8,78.7,3413.3,179.3,430.8,2659.1,3351.8,221.4,73,21.1
0.259347,421.0,80.0,2641.0,78.3,3400.1,192.7,430,2646.5,3340.1,220.9,72.9,20.8
0.261347,420.7,71.5,2635.9,78.7,3373.9,197.5,428.7,2633.3,3328.3,220.4,72.7,20.5
0.263347,421.5,62.9,2628.9,75.5,3345.8,182.7,426.9,2619.5,3316.5,219.9,72.6,20.3
0.265347,422.6,55.2,2621.5,67.4,3325.2,161.1,424.6,2605.1,3304.5,219.3,72.5,20.1
0.267347,424.0,48.5,2613.5,56.6,3308.0,144.0,421.9,2590.1,3292.6,218.8,72.4,19.9
0.269347,425.3,43.0,2605.8,46.7,3294.0,135.2,418.7,2574.7,3280.7,218.2,72.4,19.5
0.271347,426.1,38.5,2598.4,39.6,3283.0,134.2,415.1,2558.8,3268.9,217.6,72.4,19
0.273347,426.5,34.8,2590.6,35.8,3271.9,141.8,411.1,2542.5,3257.3,217,72.4,18.5
0.275347,426.4,32.3,2581.3,35.5,3256.8,159.7,406.7,2525.9,3245.7,216.4,72.5,18.2
0.277347,426.1,30.8,2569.8,38.8,3234.1,187.4,401.9,2509.1,3234.4,215.8,72.6,18
0.279347,425.5,30.1,2554.9,46.1,3203.0,213.6,396.8,2492,3223.3,215.2,72.8,18.2
0.281347,424.2,29.8,2534.5,58.0,3176.3,214.0,391.4,2474.8,3212.5,214.6,72.9,18.7
0.283347,422.0,29.7,2505.3,73.9,3171.6,187.7,385.7,2457.5,3202,213.9,73.1,19.3
0.285347,419.1,30.1,2464.3,90.6,3178.5,160.1,379.8,2440.2,3191.8,213.3,73.2,19.7
0.287347,415.8,31.4,2414.4,97.7,3178.0,140.9,373.8,2422.9,3181.9,212.6,73.3,19.9
0.289347,412.4,33.5,2368.0,90.0,3163.7,126.6,367.6,2405.9,3172.4,212,73.4,19.8
0.291347,408.7,36.8,2332.7,75.5,3141.6,113.0,361.3,2389,3163.2,211.3,73.4,19.4
0.293347,404.7,41.4,2307.1,63.3,3122.5,100.6,354.9,2372.4,3154.5,210.6,73.4,18.9
0.295347,400.1,47.2,2287.9,56.7,3109.5,91.6,348.6,2356.3,3146.2,209.9,73.4,18.4
0.297347,394.4,54.5,2272.5,55.7,3097.9,87.0,342.3,2340.5,3138.3,209.3,73.3,17.9
0.299347,387.3,63.6,2258.5,60.5,3084.3,87.5,336.1,2325.3,3130.9,208.6,73.2,17.3
0.301347,377.9,74.8,2242.9,71.3,3069.6,93.1,330.1,2310.7,3123.9,207.9,73,16.7
0.303347,365.9,88.3,2225.0,85.6,3056.8,100.2,324.2,2296.8,3117.3,207.3,72.9,16
0.305347,350.5,103.7,2210.3,96.1,3049.5,103.3,318.6,2283.6,3111.3,206.6,72.7,15.5
0.307347,330.8,119.1,2205.3,98.2,3049.2,104.7,313.3,2271.1,3105.7,206,72.6,15.2
0.309347,307.0,130.1,2208.1,96.7,3054.7,111.9,308.2,2259.6,3100.6,205.4,72.6,15.1
0.311347,282.6,132.9,2213.4,98.8,3067.0,127.5,303.5,2248.9,3096,204.8,72.7,15.1
0.313347,261.0,127.0,2219.7,109.4,3090.0,147.5,299.2,2239.3,3091.8,204.3,72.8,15.3
0.315347,245.8,114.7,2229.0,131.6,3116.4,157.9,295.4,2230.6,3088.2,203.7,73,15.6
0.317347,235.2,99.0,2244.5,170.0,3130.7,158.8,292,2223,3085,203.2,73.1,16.1
0.319347,229.0,86.6,2262.2,212.9,3125.2,159.2,289,2216.6,3082.3,202.7,73.3,16.9
0.321347,226.7,82.3,2267.5,229.4,3111.9,158.3,286.6,2211.2,3080.1,202.3,73.3,18.1
0.323347,227.4,86.2,2262.4,216.1,3106.6,163.3,284.7,2207,3078.4,201.9,73.2,19.4
0.325347,232.4,98.5,2261.0,192.4,3112.4,185.3,283.3,2204,3077.2,201.5,73.1,20.3
0.327347,244.5,118.0,2271.8,174.5,3127.7,223.0,282.5,2202.2,3076.5,201.1,72.7,20.6
0.329347,262.0,135.8,2294.1,172.2,3149.1,255.1,282.2,2201.6,3076.2,200.8,72.2,19.3
