time,f1,b1,f2,b2,f3,b3,f1p,f2p,f3p,f0,intensity,harmonicity
0.025519,161.0,357.1,2461.5,630.3,3315.2,165.6,264.9,2625.2,3547.8,219.3,59.1,-16.4
0.027519,196.8,264.8,2545.3,700.7,3326.1,228.1,265.4,2625.5,3547.3,219.4,60.4,12.6
0.029519,217.3,189.0,2627.6,687.3,3347.3,308.1,266.1,2626,3546.6,219.5,61.6,20.4
0.031519,229.7,131.8,2665.7,616.5,3365.1,359.1,267.1,2626.6,3545.4,219.7,62.7,19.4
0.033519,237.8,93.9,2661.2,550.9,3355.5,363.3,268.4,2627.5,3544,219.8,63.6,14.5
0.035519,243.6,73.1,2634.3,492.9,3331.2,351.4,270,2628.5,3542.3,219.9,64.4,10.2
0.037519,247.9,64.9,2613.9,439.9,3325.0,359.5,271.8,2629.7,3540.2,220.1,65,10.2
0.039519,251.6,63.3,2608.0,393.7,3348.6,385.8,273.9,2631.1,3537.9,220.3,65.6,10.9
0.041519,254.7,64.8,2612.2,361.6,3389.9,400.6,276.3,2632.7,3535.2,220.5,66.1,11.4
0.043519,257.7,68.0,2623.3,344.5,3433.5,403.7,279,2634.5,3532.3,220.7,66.5,12
0.045519,260.8,72.9,2637.2,331.6,3482.8,417.3,281.8,2636.4,3529.1,221,67,12.6
0.047519,264.1,78.7,2640.2,311.4,3538.1,436.6,285,2638.5,3525.5,221.2,67.4,13.5
0.049519,267.9,84.3,2625.1,290.5,3579.0,452.0,288.3,2640.8,3521.7,221.5,67.9,14.6
0.051519,272.5,90.2,2606.2,275.8,3582.9,467.7,291.9,2643.2,3517.7,221.8,68.2,15.8
0.053519,279.2,100.3,2602.0,246.4,3565.6,476.9,295.7,2645.8,3513.3,222.1,68.6,16.9
0.055519,288.9,114.9,2618.3,192.0,3573.9,492.9,299.7,2648.6,3508.8,222.5,68.9,17.8
0.057519,300.3,128.6,2640.7,132.0,3646.3,511.9,303.9,2651.5,3503.9,222.8,69.1,18.5
0.059519,313.6,139.2,2656.0,84.1,3764.2,489.5,308.3,2654.6,3498.9,223.2,69.2,18.8
0.061519,326.8,143.9,2665.1,57.6,3856.2,432.5,312.8,2657.8,3493.6,223.5,69.3,19
0.063519,336.7,140.0,2673.7,46.9,3891.0,395.8,317.5,2661.1,3488.1,223.9,69.3,19.1
0.065519,343.3,129.6,2683.8,46.4,3872.2,409.1,322.4,2664.6,3482.3,224.3,69.3,19.1
0.067519,349.6,119.9,2694.6,51.9,3806.9,457.3,327.3,2668.2,3476.4,224.7,69.2,19
0.069519,359.0,116.2,2705.6,59.5,3695.3,485.5,332.4,2671.9,3470.3,225.1,69.1,18.8
0.071519,373.4,120.5,2713.1,62.9,3581.4,443.0,337.6,2675.8,3464.1,225.5,69,18.5
0.073519,393.5,125.6,2714.3,58.6,3508.0,372.7,342.9,2679.7,3457.7,225.9,68.8,18.1
0.075519,414.2,122.4,2712.3,50.5,3475.4,329.4,348.2,2683.8,3451.1,226.3,68.7,17.8
0.077519,428.5,114.1,2712.8,45.2,3469.6,329.9,353.6,2688,3444.4,226.7,68.7,17.5
0.079519,437.0,107.7,2717.6,44.0,3479.8,369.0,359,2692.2,3437.6,227,68.8,17.1
0.081519,441.6,106.0,2723.9,46.2,3493.0,423.9,364.4,2696.5,3430.6,227.4,69,16.6
0.083519,444.1,108.0,2729.0,52.0,3494.5,469.7,369.9,2700.9,3423.6,227.7,69.3,16.4
0.085519,445.1,112.3,2733.1,62.5,3482.2,502.1,375.3,2705.3,3416.5,228.1,69.7,16.4
0.087519,444.9,116.7,2738.5,78.3,3464.7,526.3,380.8,2709.8,3409.4,228.4,70.2,16.9
0.089519,443.3,120.5,2747.2,99.5,3447.3,551.9,386.2,2714.4,3402.2,228.7,70.7,17.9
0.091519,441.0,122.7,2758.8,117.4,3431.0,586.1,391.5,2718.9,3395,229,71.1,19.2
0.093519,438.7,122.3,2770.2,122.5,3413.3,631.4,396.8,2723.5,3387.7,229.2,71.5,20.7
0.095519,437.0,119.5,2778.9,116.3,3399.1,672.5,401.9,2728.1,3380.5,229.5,71.9,22
0.097519,436.0,115.5,2784.9,108.1,3396.6,686.8,407,2732.7,3373.3,229.7,72.1,23.2
0.099519,435.4,111.6,2789.6,103.8,3401.6,678.8,412,2737.4,3366.1,229.9,72.3,24.3
0.101519,434.9,110.4,2794.3,105.4,3405.4,664.8,416.8,2741.9,3358.9,230.1,72.4,25.5
0.103519,433.7,112.9,2799.6,112.8,3396.5,653.6,421.6,2746.5,3351.8,230.3,72.4,26.5
0.105519,432.2,115.6,2803.2,127.2,3353.9,652.7,426.1,2751,3344.8,230.4,72.4,27.3
0.107519,431.8,114.3,2801.0,152.4,3270.9,644.8,430.5,2755.5,3337.9,230.5,72.4,27.8
0.109519,432.7,108.5,2790.6,194.1,3173.5,581.2,434.8,2759.9,3331.1,230.7,72.3,27.9
0.111519,434.3,100.3,2771.4,246.8,3114.2,477.3,438.8,2764.2,3324.4,230.7,72.2,27.9
0.113519,436.1,91.9,2750.1,292.7,3101.6,393.8,442.6,2768.4,3317.8,230.8,72.2,27.7
0.115519,437.3,85.6,2742.3,330.2,3112.7,359.6,446.3,2772.5,3311.4,230.9,72.1,27.6
0.117519,437.6,82.8,2750.0,360.1,3130.3,368.0,449.7,2776.5,3305.1,230.9,72,27.5
0.119519,437.3,82.0,2753.7,366.1,3153.7,388.9,452.9,2780.4,3299.1,231,72,27.5
0.121519,436.9,81.1,2738.2,347.2,3178.5,385.4,455.9,2784.1,3293.2,231,72,27.5
0.123519,436.6,79.1,2718.7,329.6,3196.0,366.2,458.7,2787.7,3287.5,231,72,27.5
0.125519,436.0,76.9,2707.5,333.1,3205.1,356.2,461.2,2791.1,3282,231,72.1,27.5
0.127519,434.9,75.9,2703.8,358.8,3207.6,359.8,463.5,2794.4,3276.7,231,72.1,27.7
0.129519,433.5,76.3,2701.3,394.3,3207.1,369.7,465.5,2797.4,3271.6,231,72.2,28
0.131519,432.0,77.6,2698.8,422.7,3207.1,384.7,467.3,2800.3,3266.8,231,72.2,28.3
0.133519,430.7,78.5,2703.0,448.7,3207.2,414.1,468.9,2802.9,3262.2,231,72.3,28.7
0.135519,430.3,77.5,2721.0,483.4,3205.6,456.3,470.1,2805.3,3257.9,231,72.3,29
0.137519,431.1,73.6,2753.0,526.9,3199.0,483.9,471.2,2807.4,3253.8,230.9,72.3,29.1
0.139519,432.9,67.3,2796.9,578.5,3185.4,469.9,472,2809.3,3250,230.9,72.3,29.3
0.141519,434.5,62.4,2844.3,620.8,3171.9,431.2,472.5,2810.9,3246.4,230.8,72.2,29.3
0.143519,435.4,60.8,2883.0,638.9,3162.5,400.7,472.9,2812.2,3243.1,230.8,72.2,29.3
0.145519,435.9,61.1,2902.8,614.5,3161.0,393.5,473,2813.2,3240.1,230.8,72.1,29.2
0.147519,436.3,60.7,2902.3,532.7,3177.3,418.3,472.8,2813.9,3237.3,230.7,72.1,28.9
0.149519,437.0,59.2,2879.8,423.9,3220.6,446.8,472.5,2814.3,3234.8,230.7,72,28.4
0.151519,437.7,57.9,2852.5,343.9,3270.1,451.3,471.9,2814.4,3232.5,230.7,72,27.8
0.153519,438.0,59.1,2838.1,303.2,3306.7,446.4,471.1,2814.1,3230.6,230.6,72,27.2
0.155519,437.3,62.5,2843.4,294.5,3324.1,444.6,470.1,2813.4,3228.8,230.6,71.9,26.6
0.157519,436.9,64.1,2859.2,300.7,3324.4,451.8,469,2812.4,3227.3,230.5,71.9,26.3
0.159519,438.3,61.1,2869.5,309.9,3312.5,465.0,467.7,2811,3226.1,230.5,71.9,26.1
0.161519,441.3,54.1,2854.0,313.9,3294.1,458.6,466.2,2809.3,3225.1,230.5,72,26
0.163519,444.2,46.5,2808.1,292.0,3280.9,408.5,464.6,2807.1,3224.3,230.5,72,26
0.165519,446.3,41.4,2765.2,246.6,3272.0,340.8,462.8,2804.5,3223.8,230.5,72.1,26
0.167519,447.8,39.2,2746.3,208.3,3262.5,289.8,460.9,2801.5,3223.5,230.4,72.2,26
0.169519,448.8,38.1,2739.6,174.2,3254.2,257.9,458.9,2798.1,3223.3,230.4,72.3,26.1
0.171519,449.6,37.1,2733.3,138.6,3248.2,240.7,456.9,2794.3,3223.3,230.4,72.4,26.3
0.173519,450.1,35.7,2725.0,108.1,3241.4,232.4,454.8,2790,3223.6,230.4,72.5,26.5
0.175519,450.8,33.7,2718.1,90.2,3231.6,226.3,452.6,2785.3,3223.9,230.4,72.6,26.6
0.177519,451.8,31.0,2714.6,84.4,3223.2,215.5,450.4,2780.2,3224.4,230.4,72.8,26.7
0.179519,452.8,28.0,2714.6,87.2,3222.9,201.0,448.1,2774.6,3225.1,230.4,72.9,26.7
0.181519,453.3,25.7,2718.4,95.8,3232.4,191.3,445.9,2768.5,3225.8,230.4,73.1,26.7
0.183519,453.4,24.5,2724.7,104.0,3245.5,190.6,443.7,2762.1,3226.6,230.4,73.3,26.7
0.185519,453.1,24.3,2731.1,106.6,3259.5,200.4,441.5,2755.1,3227.5,230.4,73.4,26.6
0.187519,452.9,24.8,2735.9,103.3,3276.9,218.1,439.3,2747.7,3228.5,230.4,73.6,26.5
0.189519,452.8,25.3,2738.1,95.8,3301.0,239.1,437.3,2739.9,3229.5,230.4,73.8,26.3
0.191519,453.0,25.7,2738.2,89.1,3328.6,258.9,435.3,2731.6,3230.5,230.4,74,26
0.193519,453.4,25.8,2737.0,89.5,3348.9,278.5,433.4,2722.8,3231.5,230.4,74.2,25.8
0.195519,453.8,25.7,2733.4,102.3,3349.0,294.8,431.7,2713.6,3232.4,230.4,74.4,25.6
0.197519,454.1,25.2,2723.8,130.1,3323.5,290.2,430,2703.9,3233.4,230.3,74.6,25.4
0.199519,454.5,24.0,2699.8,166.3,3283.3,248.8,428.6,2693.9,3234.2,230.3,74.9,25.2
0.201519,455.2,22.0,2663.8,174.9,3255.9,196.7,427.3,2683.3,3235,230.3,75.2,24.9
0.203519,456.2,19.6,2635.9,148.2,3247.5,171.2,426.2,2672.4,3235.7,230.2,75.4,24.8
0.205519,457.1,17.5,2624.5,119.3,3256.5,184.1,425.3,2661,3236.3,230.1,75.7,24.7
0.207519,457.7,16.1,2624.4,104.6,3286.3,240.6,424.6,2649.3,3236.7,230.1,76.1,24.8
0.209519,458.1,15.2,2632.1,99.6,3342.5,353.4,424.1,2637.1,3236.9,230,76.4,25
0.211519,458.6,14.3,2645.0,99.2,3402.3,509.3,423.9,2624.5,3237,229.8,76.7,25.3
0.213519,459.2,13.1,2654.3,104.1,3397.9,645.7,423.9,2611.6,3236.8,229.7,77.1,25.7
0.215519,460.0,11.9,2649.2,119.0,3308.9,598.0,424.2,2598.3,3236.5,229.5,77.5,25.9
0.217519,460.6,10.8,2630.6,134.4,3247.0,435.4,424.7,2584.6,3235.9,229.3,77.8,26
0.219519,461.1,9.9,2607.9,142.2,3219.5,309.5,425.5,2570.6,3235.1,229.1,78.2,26
0.221519,461.6,9.2,2590.2,145.6,3204.8,247.4,426.6,2556.3,3234,228.9,78.6,25.9
0.223519,462.1,8.7,2579.5,153.2,3195.2,232.4,428,2541.6,3232.6,228.6,78.9,25.8
0.225519,462.7,8.4,2575.7,172.6,3190.2,248.0,429.6,2526.7,3230.9,228.3,79.3,25.7
0.227519,463.0,8.1,2577.1,204.5,3187.9,271.0,431.6,2511.5,3229,228,79.6,25.7
0.229519,463.1,7.8,2580.4,248.6,3183.5,286.3,433.8,2496,3226.7,227.6,79.8,25.8
0.231519,462.9,7.6,2575.3,295.3,3170.2,289.6,436.3,2480.3,3224,227.2,80,25.9
0.233519,462.5,7.5,2546.0,331.0,3145.5,274.3,439.2,2464.4,3221.1,226.7,80.2,25.8
0.235519,462.0,7.4,2493.4,334.8,3120.2,237.1,442.3,2448.3,3217.8,226.2,80.3,25.5
0.237519,461.2,7.5,2444.0,316.4,3104.0,207.4,445.7,2432,3214.2,225.7,80.2,24.7
0.239519,459.8,7.7,2411.1,308.2,3093.2,205.0,449.4,2415.6,3210.2,225.2,80.2,23.3
0.241519,457.9,7.9,2403.3,325.6,3088.9,231.8,453.4,2399,3205.8,224.6,80,21.6
0.243519,455.7,8.3,2414.4,348.7,3096.4,254.8,457.6,2382.3,3201.1,224,79.7,19.8
0.245519,453.3,9.1,2424.0,357.7,3107.1,245.0,462.1,2365.5,3196,223.3,79.4,18.4
0.247519,450.8,10.4,2422.3,362.0,3112.0,230.0,466.9,2348.6,3190.6,222.7,79,17.4
0.249519,447.9,12.4,2409.6,366.5,3112.0,234.2,471.9,2331.7,3184.8,222,78.6,16.8
0.251519,445.5,15.5,2383.1,364.1,3104.2,270.6,477.1,2314.8,3178.6,221.3,78.2,16.5
0.253519,444.5,19.9,2348.6,351.7,3085.7,328.2,482.5,2297.8,3172.2,220.5,77.9,16.3
0.255519,444.7,25.0,2317.0,345.3,3059.4,389.6,488.1,2280.9,3165.3,219.8,77.6,16.1
0.257519,445.3,30.0,2291.8,362.5,3021.6,465.7,494,2264.1,3158.1,219,77.4,15.8
0.259519,445.8,35.6,2267.6,408.2,2960.4,551.2,500,2247.2,3150.6,218.2,77.3,15.6
0.261519,446.5,43.1,2229.5,442.6,2913.2,567.5,506.1,2230.5,3142.8,217.4,77.1,15.5
0.263519,448.8,54.7,2170.7,392.1,2935.7,492.0,512.4,2213.9,3134.7,216.6,76.9,15.4
0.265519,454.9,72.8,2112.9,282.7,2995.6,379.3,518.8,2197.5,3126.2,215.8,76.7,15.3
0.267519,467.6,95.8,2071.5,189.6,3048.8,284.5,525.3,2181.2,3117.5,215,76.5,15.2
0.269519,489.9,119.1,2044.5,128.8,3086.8,219.3,531.9,2165.1,3108.5,214.2,76.4,15
0.271519,517.4,132.5,2030.3,97.2,3105.0,189.0,538.5,2149.1,3099.3,213.4,76.3,14.9
0.273519,543.3,135.3,2023.6,82.1,3106.5,188.4,545.2,2133.4,3089.8,212.6,76.3,14.9
0.275519,564.0,132.0,2019.1,75.6,3098.3,207.1,551.9,2118,3080.1,211.8,76.3,15
0.277519,578.6,125.6,2013.0,73.4,3093.4,225.5,558.6,2102.8,3070.2,211,76.4,15.5
0.279519,588.9,115.2,2003.0,72.4,3101.4,221.4,565.3,2087.8,3060.2,210.3,76.6,16.3
0.281519,595.0,101.6,1989.9,71.4,3115.6,189.7,572,2073.2,3049.9,209.5,76.9,17.4
0.283519,597.8,87.6,1976.0,69.8,3125.0,157.4,578.6,2058.9,3039.5,208.7,77.2,18.5
0.285519,599.2,76.1,1964.8,66.0,3132.3,142.6,585.1,2044.9,3029,208,77.5,19.3
0.287519,600.3,68.6,1958.6,59.7,3141.6,145.7,591.5,2031.3,3018.3,207.3,77.8,19.8
0.289519,601.7,64.6,1956.7,52.5,3154.7,164.8,597.8,2018,3007.6,206.5,78,20.1
0.291519,603.6,63.2,1956.6,46.6,3168.8,202.5,604,2005.1,2996.8,205.8,78.3,20.2
0.293519,605.7,62.1,1956.6,42.7,3176.7,267.6,610,1992.6,2986,205.1,78.5,20.1
0.295519,607.8,60.1,1957.1,41.1,3164.2,359.5,615.9,1980.4,2975.1,204.4,78.6,20
0.297519,609.6,57.4,1958.8,40.9,3122.2,427.0,621.6,1968.7,2964.3,203.7,78.7,20
0.299519,611.0,54.2,1961.4,39.7,3071.1,415.0,627,1957.4,2953.4,203,78.8,19.8
0.301519,611.9,51.6,1963.0,36.6,3048.7,343.9,632.3,1946.6,2942.6,202.3,78.9,19.6
0.303519,612.4,51.0,1962.3,33.7,3058.9,263.1,637.3,1936.1,2931.8,201.7,79,19.3
0.305519,613.3,53.2,1958.9,33.1,3084.4,193.9,642.1,1926.1,2921.1,201,79,18.9
0.307519,615.4,59.4,1952.6,35.2,3105.0,147.3,646.6,1916.5,2910.5,200.3,79.1,18.5
0.309519,619.8,71.4,1942.4,37.3,3114.4,122.5,650.9,1907.4,2900,199.7,79.1,18
0.311519,626.7,88.0,1932.4,36.7,3112.6,120.0,654.9,1898.7,2889.6,199,79.2,17.5
0.313519,635.3,102.0,1926.2,34.9,3100.8,139.9,658.6,1890.5,2879.4,198.4,79.2,16.9
0.315519,644.6,107.9,1923.4,33.9,3075.8,186.2,662.1,1882.7,2869.3,197.7,79.2,16.3
0.317519,653.6,107.9,1922.0,35.3,3027.9,263.0,665.2,1875.4,2859.4,197.1,79.2,15.9
0.319519,663.0,106.9,1919.3,40.0,2928.1,356.7,668,1868.5,2849.7,196.5,79.1,15.5
0.321519,671.2,104.4,1912.8,46.6,2794.4,365.8,670.6,1862,2840.2,195.9,79,15.1
0.323519,677.2,98.7,1903.1,51.2,2708.5,288.5,672.8,1856,2830.9,195.2,78.8,14.8
0.325519,681.3,92.5,1893.2,54.5,2673.4,216.0,674.8,1850.4,2821.8,194.6,78.6,14.5
0.327519,684.1,85.9,1883.1,58.1,2656.6,169.7,676.4,1845.2,2813,194,78.4,14.2
0.329519,687.1,77.5,1870.5,59.7,2644.3,139.5,677.8,1840.4,2804.4,193.4,78.1,14
0.331519,691.0,69.0,1857.2,57.1,2635.7,124.5,678.8,1836,2796.1,192.8,77.8,13.8
0.333519,695.9,63.7,1847.9,53.3,2631.5,126.4,679.6,1832,2788,192.3,77.4,13.7
0.335519,701.8,63.1,1845.6,52.1,2632.1,143.8,680.1,1828.4,2780.1,191.7,76.9,13.4
0.337519,707.5,64.8,1848.8,52.8,2636.9,163.6,680.3,1825.2,2772.6,191.1,76.4,13.1
0.339519,712.2,65.4,1853.3,52.6,2644.1,174.1,680.3,1822.3,2765.3,190.6,75.9,12.6
0.341519,714.6,62.9,1855.0,49.5,2648.8,177.0,680,1819.7,2758.3,190,75.3,12.2
0.343519,714.7,58.1,1852.9,44.8,2645.3,181.6,679.5,1817.5,2751.6,189.5,74.7,11.6
0.345519,713.0,53.7,1848.0,41.3,2631.5,187.1,678.7,1815.6,2745.1,189,74.2,11.2
0.347519,709.7,51.3,1841.8,40.1,2614.9,185.1,677.8,1814,2739,188.5,73.6,10.7
0.349519,705.2,50.5,1835.8,40.6,2603.1,178.2,676.6,1812.6,2733.1,188,73.1,10.2
0.351519,701.3,50.4,1831.7,42.5,2594.6,179.3,675.3,1811.5,2727.5,187.5,72.7,9.7
0.353519,698.9,50.8,1829.4,46.0,2584.1,191.1,673.7,1810.7,2722.2,187.1,72.4,9.3
0.355519,697.4,52.1,1826.4,51.4,2578.5,197.5,672.1,1810.1,2717.1,186.6,72.1,9
0.357519,696.0,54.7,1820.7,57.3,2591.0,181.8,670.3,1809.7,2712.3,186.2,71.9,9
0.359519,694.4,58.4,1812.6,62.7,2617.2,154.6,668.3,1809.5,2707.8,185.8,71.8,9.3
0.361519,693.0,62.6,1804.8,65.6,2642.3,134.4,666.3,1809.5,2703.5,185.3,71.7,9.8
0.363519,692.1,67.5,1799.1,66.3,2660.8,128.5,664.2,1809.6,2699.5,184.9,71.8,10.3
0.365519,691.1,74.4,1795.8,68.1,2672.4,138.1,662,1809.9,2695.7,184.5,71.8,10.8
0.367519,690.0,82.5,1795.8,72.2,2676.0,156.7,659.8,1810.3,2692.2,184.1,71.9,11.1
0.369519,690.1,91.4,1799.3,77.8,2673.1,173.6,657.5,1810.8,2688.9,183.8,72,11.5
0.371519,692.0,97.9,1804.5,81.3,2669.4,175.7,655.2,1811.4,2685.8,183.4,72,11.8
0.373519,694.9,99.8,1808.4,81.2,2669.0,164.7,653,1812,2682.9,183,72,12.1
0.375519,697.2,97.9,1809.4,79.2,2671.3,150.7,650.7,1812.8,2680.3,182.7,72,12.4
0.377519,697.3,96.4,1808.6,79.1,2675.3,139.8,648.5,1813.5,2677.9,182.3,71.9,12.8
0.379519,693.6,100.3,1807.7,84.6,2682.2,132.3,646.4,1814.3,2675.6,182,71.7,13.3
0.381519,685.5,109.3,1807.1,94.7,2691.0,125.0,644.3,1815.1,2673.6,181.6,71.5,13.8
0.383519,674.5,118.5,1806.3,104.3,2699.6,117.9,642.3,1815.9,2671.7,181.3,71.2,14.3
0.385519,661.4,124.6,1806.0,112.5,2707.6,117.8,640.5,1816.7,2670,181,70.9,14.7
0.387519,647.2,126.5,1807.1,119.0,2714.8,125.9,638.7,1817.5,2668.5,180.6,70.6,14.9
0.389519,631.5,123.6,1809.8,123.1,2722.0,140.0,637.1,1818.2,2667.1,180.3,70.3,15.1
0.391519,615.7,116.0,1813.6,125.0,2729.9,156.3,635.6,1818.9,2665.9,180,70.1,15.3
0.393519,601.1,105.2,1817.4,125.2,2738.9,167.9,634.2,1819.5,2664.9,179.7,69.9,15.3
0.395519,588.1,93.7,1819.6,124.8,2747.8,168.1,633,1820,2664,179.4,69.8,15.3
0.397519,576.6,83.3,1818.0,126.7,2753.8,160.9,632,1820.5,2663.2,179.1,69.7,15.3
0.399519,564.7,73.6,1811.6,134.6,2755.7,155.5,631.2,1820.9,2662.6,178.8,69.8,15.2
0.401519,552.7,65.1,1801.4,148.9,2753.7,157.8,630.5,1821.2,2662.2,178.6,69.8,15.2
0.403519,541.1,57.8,1789.3,164.2,2750.6,166.3,630,1821.4,2661.8,178.3,69.9,15
0.405519,530.9,51.9,1777.8,172.5,2749.4,174.7,629.7,1821.6,2661.6,178.1,70,14.6
0.407519,522.6,48.2,1770.0,171.3,2750.5,176.0,629.6,1821.6,2661.6,177.8,69.9,13.8
