time,f1,b1,f2,b2,f3,b3,f1p,f2p,f3p,f0,intensity,harmonicity
0.025528,172.4,607.6,2327.5,295.3,3035.9,140.4,213.9,2460.7,3157.3,206.7,57.6,-200
0.027528,209.9,414.3,2326.5,342.6,3081.9,198.0,214.4,2464.3,3163.4,206.1,59.3,-200
0.029528,237.5,272.4,2382.6,414.7,3173.3,302.5,215.2,2470.2,3173.6,205.4,60.8,-168.6
0.031528,248.6,195.5,2496.7,475.7,3301.0,345.4,216.3,2478.4,3187.8,204.8,62,-122.5
0.033528,252.6,162.5,2606.3,493.6,3363.0,322.2,217.7,2488.7,3205.7,204.1,63.1,-71.2
0.035528,252.2,146.2,2674.2,513.4,3379.1,344.6,219.4,2500.9,3227.2,203.5,64,-24.6
0.037528,247.1,132.2,2695.5,512.5,3396.5,392.9,221.3,2514.9,3252.1,202.8,64.8,7.8
0.039528,238.7,113.4,2687.8,475.4,3443.6,445.6,223.3,2530.4,3280.1,202.1,65.5,22.9
0.041528,229.6,90.7,2663.0,433.6,3520.1,509.3,225.6,2547.3,3311,201.4,66.1,27.3
0.043528,223.1,72.3,2631.9,411.6,3624.1,588.0,227.9,2565.1,3344.3,200.8,66.7,25.3
0.045528,219.5,61.8,2602.6,402.7,3768.8,588.6,230.3,2583.7,3379.9,200.1,67.2,21.5
0.047528,218.4,60.1,2589.1,400.7,3839.1,483.8,232.7,2602.7,3417.3,199.5,67.7,20.3
0.049528,218.7,63.6,2600.0,415.4,3839.2,432.7,235,2621.9,3456.1,198.9,68.1,21.7
0.051528,219.8,70.0,2635.0,449.8,3522.4,5379.2,237.3,2641,3496.1,198.3,68.4,22.6
0.053528,221.0,76.1,2675.7,501.3,3091.6,4555.5,239.5,2659.7,3536.7,197.8,68.6,23.3
0.055528,222.4,82.0,2712.2,576.0,2810.2,3498.2,241.5,2677.7,3577.7,197.2,68.7,23.7
0.057528,223.8,89.6,2607.1,2997.0,2747.3,645.2,243.2,2694.8,3618.6,196.8,68.8,23.9
0.059528,225.4,101.9,2436.6,3136.1,2771.9,670.3,244.8,2710.7,3659.2,196.3,68.8,23.8
0.061528,227.4,119.7,2208.5,4127.5,2772.6,663.4,246.1,2725.2,3699,195.9,68.7,23.4
0.063528,229.9,139.5,2760.7,642.7,3980.5,304.5,247,2738.1,3737.7,195.5,68.5,22.8
0.065528,233.3,160.2,2751.5,608.9,3950.0,299.6,247.7,2749.3,3775,195.2,68.3,22.4
0.067528,237.2,179.5,2747.1,561.2,3925.6,291.3,248,2758.7,3810.6,194.9,68,22.3
0.069528,241.2,199.7,2742.1,499.3,3917.0,287.2,248,2766.1,3844.3,194.7,67.7,22.7
0.071528,245.0,220.5,2739.6,439.9,3927.1,287.9,247.6,2771.6,3875.8,194.5,67.4,23.4
0.073528,247.1,233.1,2744.7,409.4,3948.8,287.5,246.9,2775,3904.9,194.3,67.1,24.3
0.075528,247.3,232.3,2757.8,405.3,3976.0,280.1,245.9,2776.5,3931.6,194.2,66.9,25.2
0.077528,247.2,225.6,2775.0,404.3,4006.8,261.9,244.6,2776.1,3955.6,194.1,66.7,26
0.079528,248.3,224.0,2793.4,385.7,4043.7,231.4,243,2773.8,3976.8,194.1,66.6,26.9
0.081528,251.9,231.0,2811.2,353.2,4083.4,195.3,241.1,2769.9,3995.3,194,66.5,27.9
0.083528,257.9,240.7,2825.9,331.0,4114.8,172.7,239.1,2764.4,4010.9,194.1,66.4,28.9
0.085528,260.9,238.9,2835.9,341.5,4136.4,178.3,236.9,2757.7,4023.7,194.1,66.3,29.6
0.087528,253.0,212.8,2837.0,396.4,4147.4,223.5,234.5,2749.8,4033.8,194.3,66.3,29.9
0.089528,242.4,173.4,2829.4,465.0,4153.5,290.0,232.1,2741.1,4041.2,194.4,66.3,29.8
0.091528,235.5,141.1,2818.6,485.3,4167.1,309.1,229.7,2731.7,4045.9,194.6,66.4,29.2
0.093528,231.2,119.8,2813.5,463.0,4185.7,272.5,227.3,2721.9,4048.2,194.8,66.5,28.4
0.095528,228.1,103.3,2815.1,448.2,4198.6,233.3,225,2712.1,4048.2,195,66.6,27.6
0.097528,226.2,92.5,2823.3,457.7,4202.2,214.9,222.9,2702.4,4046,195.3,66.7,26.9
0.099528,225.0,87.5,2841.6,480.3,4198.8,214.5,221,2693.1,4041.8,195.6,66.9,26.5
0.101528,224.1,87.4,2869.8,502.7,4187.7,235.0,219.4,2684.5,4035.8,196,67.1,26
0.103528,223.1,87.6,2879.3,540.2,4158.5,293.0,218.1,2676.9,4028.2,196.3,67.3,25.6
0.105528,221.2,82.9,2808.3,682.9,4079.3,409.3,217.1,2670.3,4019.2,196.7,67.5,25.3
0.107528,219.5,80.4,2582.8,847.4,3962.2,485.0,216.6,2665.1,4009,197.2,67.8,25.1
0.109528,218.4,85.1,2362.3,738.1,3884.9,472.4,216.5,2661.4,3997.8,197.6,68.1,25.2
0.111528,217.6,92.4,2271.5,615.3,3853.5,455.5,217,2659.3,3985.7,198.1,68.4,25.6
0.113528,217.7,96.0,2265.9,581.2,3847.4,456.7,217.9,2659,3973.1,198.6,68.8,26
0.115528,219.4,94.7,2345.8,613.0,3866.1,460.5,219.4,2660.4,3959.9,199.1,69.2,26.4
0.117528,222.6,91.3,2517.8,599.1,3902.9,416.9,221.4,2663.7,3946.5,199.7,69.6,26.5
0.119528,226.8,88.3,2674.9,476.9,3922.8,326.5,224,2668.7,3932.8,200.3,70.1,26.3
0.121528,231.2,87.2,2750.6,395.8,3910.6,255.1,227.2,2675.5,3919.1,200.9,70.6,26
0.123528,234.9,88.3,2770.2,381.6,3891.2,230.6,231,2684,3905.5,201.5,71.1,25.6
0.125528,238.1,90.5,2778.9,392.6,3888.6,248.7,235.2,2694.1,3892,202.1,71.7,25.2
0.127528,241.1,94.1,2795.7,393.5,3904.6,304.4,240.1,2705.5,3878.6,202.7,72.2,25
0.129528,243.7,97.8,2819.6,368.9,3919.4,387.6,245.4,2718.1,3865.4,203.3,72.8,25
0.131528,245.8,98.2,2843.5,328.1,3904.6,475.5,251.2,2731.6,3852.5,204,73.4,25.3
0.133528,247.5,95.5,2855.8,282.5,3861.1,521.8,257.4,2745.8,3839.8,204.6,73.9,25.6
0.135528,249.8,92.4,2854.4,229.1,3815.5,527.8,264,2760.5,3827.3,205.2,74.4,25.8
0.137528,253.0,90.8,2843.8,177.2,3776.1,506.4,271,2775.2,3814.9,205.9,74.8,25.7
0.139528,257.5,91.1,2831.6,136.0,3732.1,461.5,278.2,2789.8,3802.6,206.5,75.2,25.3
0.141528,263.3,92.3,2823.0,109.9,3684.5,409.6,285.8,2803.8,3790.3,207.1,75.6,24.8
0.143528,270.0,93.2,2818.9,98.1,3643.7,374.7,293.5,2817,3778,207.7,75.9,24.1
0.145528,278.6,93.8,2817.4,94.6,3611.3,356.5,301.3,2829.1,3765.4,208.3,76.2,23.3
0.147528,289.1,94.9,2817.7,95.2,3592.8,348.5,309.3,2839.6,3752.6,208.9,76.3,22.6
0.149528,301.8,95.7,2819.6,97.5,3587.1,348.4,317.2,2848.4,3739.4,209.4,76.5,21.8
0.151528,316.5,93.7,2823.7,101.1,3590.4,361.3,325.2,2855.1,3725.7,209.9,76.6,20.9
0.153528,331.2,88.0,2829.3,105.6,3595.3,386.8,333.1,2859.5,3711.5,210.4,76.7,20.1
0.155528,346.3,79.7,2835.0,110.5,3596.7,419.2,341,2861.3,3696.5,210.9,76.7,19.3
0.157528,360.3,70.8,2839.1,114.5,3595.5,450.1,348.6,2860.3,3680.6,211.3,76.8,18.5
0.159528,373.1,61.4,2841.3,117.6,3598.9,479.7,356.2,2856.4,3663.9,211.8,76.9,17.8
0.161528,384.9,51.6,2840.9,120.1,3613.0,504.2,363.5,2849.4,3646.2,212.1,77,17.1
0.163528,394.8,42.7,2836.0,124.4,3634.6,521.7,370.6,2839.3,3627.5,212.5,77.2,16.5
0.165528,403.1,34.3,2823.6,134.1,3660.2,549.0,377.4,2826,3607.6,212.8,77.5,16
0.167528,409.4,27.5,2801.4,149.7,3684.8,600.9,384,2809.4,3586.6,213.1,77.8,15.7
0.169528,414.4,22.2,2766.1,168.1,3707.4,685.7,390.4,2789.6,3564.4,213.3,78.2,15.8
0.171528,418.8,17.9,2718.1,182.5,3730.5,807.3,396.5,2766.8,3541.1,213.6,78.6,16.2
0.173528,422.4,14.8,2667.0,184.3,3758.0,925.7,402.4,2740.9,3516.6,213.8,79,16.8
0.175528,425.5,12.9,2617.2,167.2,3778.6,947.4,408,2712.2,3490.9,213.9,79.3,17.2
0.177528,428.1,12.0,2579.1,137.5,3762.5,856.1,413.4,2680.9,3464.2,214.1,79.6,17.4
0.179528,430.2,12.1,2554.1,111.4,3724.9,775.9,418.7,2647.2,3436.5,214.2,79.7,17.4
0.181528,431.7,12.8,2539.6,100.1,3673.9,779.8,423.8,2611.3,3407.8,214.3,79.7,17.2
0.183528,432.3,13.9,2531.6,105.4,3614.2,858.3,428.7,2573.6,3378.3,214.4,79.6,16.9
0.185528,432.1,16.0,2525.7,122.7,3577.0,983.2,433.6,2534.4,3348,214.5,79.3,16.5
0.187528,431.2,19.2,2521.8,148.7,3649.5,1245.2,438.4,2493.9,3317.1,214.5,78.8,16.2
0.189528,429.7,24.2,2519.1,187.5,3199.8,2142.8,443.2,2452.6,3285.8,214.6,78.2,15.7
0.191528,428.2,31.6,2513.9,250.4,2953.8,1687.0,448.1,2410.8,3254.1,214.6,77.5,15
0.193528,427.6,41.1,2499.4,337.1,2869.5,1314.3,453,2368.8,3222.2,214.7,76.7,14.4
0.195528,429.1,52.8,2463.6,439.3,2846.1,1013.7,457.9,2327,3190.2,214.7,76,13.9
0.197528,433.7,63.2,2406.9,512.7,2858.2,811.7,463,2285.7,3158.4,214.8,75.4,13.9
0.199528,441.3,69.6,2342.1,551.2,2878.5,676.5,468.3,2245.3,3126.8,214.9,75,14.5
0.201528,451.5,71.3,2275.2,571.3,2897.2,581.8,473.7,2206.1,3095.7,215,74.7,15.6
0.203528,462.1,70.4,2219.4,580.7,2915.5,530.1,479.4,2168.3,3065,215.1,74.5,16.8
0.205528,472.4,69.8,2182.9,586.8,2938.9,515.7,485.3,2132.2,3035.1,215.2,74.5,17.9
0.207528,481.4,71.5,2173.3,601.4,2964.3,536.7,491.4,2098,3006,215.3,74.5,18.7
0.209528,490.2,76.0,2182.7,637.2,2988.9,588.7,497.7,2066,2977.8,215.5,74.6,19.1
0.211528,500.0,81.9,2192.9,712.7,2994.4,672.4,504.3,2036.3,2950.6,215.6,74.7,19.3
0.213528,510.3,85.8,2174.5,867.9,2934.2,765.6,511.1,2009,2924.6,215.8,74.8,19.4
0.215528,521.5,87.0,2075.9,1096.7,2832.6,706.9,518.1,1984.2,2899.8,216,74.8,19.3
0.217528,531.9,86.3,1935.4,1193.3,2810.9,568.9,525.3,1961.9,2876.2,216.3,74.9,19.1
0.219528,541.4,86.1,1840.2,1223.1,2827.7,480.5,532.7,1942.3,2854,216.5,74.9,18.9
0.221528,551.0,87.9,1780.5,1285.6,2851.5,435.6,540.2,1925.1,2833.2,216.8,74.8,18.5
0.223528,560.5,89.5,1715.1,1329.1,2869.1,397.0,547.8,1910.5,2813.7,217,74.7,18
0.225528,570.6,88.4,1637.4,1289.7,2883.5,346.8,555.4,1898.2,2795.6,217.3,74.6,17.5
0.227528,580.8,85.7,1597.6,1233.6,2897.7,316.0,563,1888.2,2778.9,217.6,74.4,17.2
0.229528,590.7,82.1,1602.9,1183.4,2903.7,314.0,570.6,1880.3,2763.6,217.9,74.2,16.9
0.231528,599.3,77.3,1641.6,1111.5,2891.9,338.1,578.1,1874.3,2749.6,218.2,73.9,16.6
0.233528,605.8,71.9,1690.4,1019.3,2860.3,374.0,585.3,1870,2736.9,218.4,73.6,16.4
0.235528,611.6,66.4,1745.3,937.8,2812.6,413.6,592.4,1867.3,2725.5,218.7,73.3,16.3
0.237528,616.7,61.6,1804.2,888.9,2757.8,457.0,599.2,1865.9,2715.3,219,72.9,16.4
0.239528,621.4,56.6,1867.9,853.2,2692.0,512.5,605.6,1865.6,2706.3,219.3,72.5,16.7
0.241528,625.4,50.8,1931.2,794.7,2614.4,577.3,611.6,1866.1,2698.3,219.5,72.2,17.2
0.243528,628.3,45.3,1983.9,690.2,2561.1,655.1,617.2,1867.3,2691.4,219.8,71.8,17.7
0.245528,630.0,40.4,2010.7,537.3,2581.2,750.6,622.2,1868.9,2685.5,220,71.5,18.2
0.247528,630.1,36.5,2001.3,418.6,2658.1,762.9,626.7,1870.7,2680.5,220.3,71.2,18.3
0.249528,628.2,33.6,1983.4,346.3,2717.6,714.7,630.5,1872.6,2676.3,220.5,70.9,18.2
0.251528,624.3,32.0,1970.0,301.9,2738.0,685.9,633.8,1874.3,2673,220.7,70.7,18
0.253528,619.2,32.0,1963.1,282.8,2727.1,710.1,636.3,1875.9,2670.5,220.9,70.5,17.6
0.255528,613.3,33.8,1957.6,288.1,2693.0,781.1,638.1,1877,2668.7,221,70.3,17
0.257528,607.5,36.8,1948.4,317.5,2643.1,850.0,639.2,1877.8,2667.6,221.2,70.1,16.1
0.259528,601.8,40.4,1929.1,371.4,2589.2,864.3,639.6,1878,2667.3,221.4,69.8,14.6
