time,f1,b1,f2,b2,f3,b3,f1p,f2p,f3p,f0,intensity,harmonicity
0.025286,603.0,46.0,2065.8,54.8,2838.6,158.7,689.5,2072,2830.4,194.4,77.3,2.7
0.027286,607.3,50.6,2069.8,54.1,2855.1,162.1,689.9,2072.2,2831,194.4,77.4,4.4
0.029286,610.9,58.4,2074.5,54.1,2871.6,174.9,690.6,2072.4,2832.1,194.5,77.3,6.5
0.031286,616.1,69.1,2079.7,54.1,2885.7,188.1,691.6,2072.8,2833.6,194.5,77.2,8.8
0.033286,626.7,80.1,2084.0,53.5,2891.6,185.5,692.8,2073.2,2835.5,194.6,77.1,10.8
0.035286,643.1,87.9,2087.1,53.3,2891.8,171.1,694.3,2073.7,2837.8,194.7,76.8,12.2
0.037286,663.7,91.1,2088.6,54.7,2890.5,159.8,696.1,2074.3,2840.5,194.8,76.6,13.3
0.039286,682.9,89.8,2088.2,58.0,2888.6,159.7,698.1,2075,2843.5,194.9,76.4,14.3
0.041286,700.4,85.8,2086.2,62.8,2883.9,169.8,700.3,2075.6,2846.8,195,76.2,15.1
0.043286,715.2,80.7,2083.9,66.7,2870.3,185.6,702.8,2076.3,2850.3,195.2,76,15.8
0.045286,727.4,74.8,2081.9,68.1,2844.8,198.6,705.5,2077.1,2854.1,195.4,75.8,16.4
0.047286,737.9,67.5,2079.3,69.0,2812.2,203.2,708.4,2077.8,2858.1,195.5,75.7,17
0.049286,746.2,60.8,2075.9,72.1,2787.5,199.5,711.4,2078.4,2862.2,195.7,75.6,17.6
0.051286,753.5,55.5,2072.2,79.4,2771.6,191.8,714.7,2079,2866.5,195.9,75.4,17.9
0.053286,760.4,52.0,2069.8,89.3,2756.1,181.3,718,2079.6,2870.8,196.2,75.3,18.1
0.055286,766.8,48.7,2069.9,95.8,2737.5,171.3,721.5,2080,2875.1,196.4,75.2,17.9
0.057286,772.8,45.7,2074.4,96.0,2724.6,173.2,725.1,2080.4,2879.4,196.7,75.2,17.3
0.059286,777.7,43.8,2083.5,91.6,2732.4,201.8,728.8,2080.6,2883.7,197,75.1,16.4
0.061286,782.4,42.2,2094.2,83.4,2774.6,265.8,732.6,2080.7,2887.8,197.2,75.1,15.5
0.063286,786.9,39.4,2099.0,74.5,2850.6,332.3,736.4,2080.6,2891.8,197.6,75.1,14.9
0.065286,790.6,35.1,2094.9,72.6,2917.3,346.8,740.3,2080.3,2895.6,197.9,75.2,14.9
0.067286,793.3,30.6,2081.4,82.6,2956.9,320.6,744.1,2079.9,2899.2,198.2,75.3,15.5
0.069286,794.9,27.6,2059.1,105.3,2983.2,283.2,748,2079.2,2902.5,198.6,75.4,16.4
0.071286,795.8,26.9,2030.0,145.9,3006.8,241.2,751.8,2078.4,2905.6,198.9,75.5,17.3
0.073286,796.2,29.3,2014.4,206.7,3019.3,210.7,755.6,2077.3,2908.3,199.3,75.7,18.1
0.075286,797.0,33.6,2034.6,270.7,3019.0,207.0,759.3,2076.1,2910.7,199.7,75.9,18.5
0.077286,798.4,37.5,2078.7,307.6,3009.2,224.5,763,2074.6,2912.7,200,76.1,18.6
0.079286,800.0,39.7,2108.8,308.8,2988.8,249.4,766.5,2072.8,2914.4,200.4,76.3,18.5
0.081286,801.2,41.1,2115.8,298.6,2958.5,273.5,769.9,2070.9,2915.6,200.8,76.5,18.4
0.083286,801.7,43.1,2103.6,290.8,2932.8,286.6,773.2,2068.8,2916.4,201.2,76.7,18.3
0.085286,801.2,47.5,2078.7,284.6,2925.1,284.6,776.4,2066.4,2916.9,201.6,76.9,18.4
0.087286,799.7,55.6,2045.7,272.4,2930.7,267.2,779.4,2063.8,2916.9,202.1,77.1,18.5
0.089286,797.1,65.2,2018.4,256.6,2935.0,244.3,782.2,2061.1,2916.5,202.5,77.4,18.7
0.091286,793.5,74.9,2002.3,244.1,2933.7,219.3,784.9,2058.2,2915.7,202.9,77.6,18.9
0.093286,789.4,82.7,2001.0,236.0,2928.3,191.1,787.3,2055.1,2914.5,203.3,77.9,19.1
0.095286,785.7,90.5,2014.7,226.2,2917.5,167.8,789.6,2051.9,2913,203.7,78.2,19.3
0.097286,781.9,102.1,2036.0,210.3,2898.4,155.3,791.7,2048.6,2911,204.1,78.4,19.4
0.099286,777.0,115.1,2049.0,189.4,2874.4,149.8,793.6,2045.2,2908.8,204.6,78.7,19.6
0.101286,769.9,128.7,2053.4,163.1,2854.7,142.5,795.3,2041.6,2906.2,205,78.9,19.7
0.103286,760.4,144.4,2054.6,137.7,2852.2,133.9,796.8,2038.1,2903.4,205.4,79.2,19.8
0.105286,748.1,163.2,2054.8,119.7,2863.0,128.5,798.2,2034.5,2900.3,205.8,79.4,19.9
0.107286,732.0,187.3,2054.2,110.9,2875.8,129.0,799.3,2030.9,2896.9,206.2,79.5,20
0.109286,716.3,211.5,2053.5,113.4,2880.7,137.5,800.3,2027.3,2893.4,206.7,79.7,20
0.111286,707.5,226.5,2051.9,126.9,2874.8,151.7,801.1,2023.7,2889.7,207.1,79.9,20
0.113286,713.1,219.8,2046.2,149.7,2862.2,163.7,801.7,2020.2,2885.9,207.5,80,20
0.115286,728.2,197.7,2033.9,178.9,2852.3,168.7,802.2,2016.7,2882.1,207.9,80.2,20
0.117286,744.7,173.0,2013.3,215.8,2850.2,169.0,802.6,2013.3,2878.1,208.3,80.3,19.9
0.119286,756.8,156.5,1990.1,253.8,2855.9,169.1,802.8,2010.1,2874.1,208.7,80.4,19.8
0.121286,765.6,147.8,1972.9,284.8,2866.0,177.1,803,2007,2870.2,209.1,80.5,19.8
0.123286,772.5,144.7,1975.4,295.4,2876.9,204.4,803.1,2004,2866.3,209.5,80.5,19.7
0.125286,779.3,145.0,1997.3,289.8,2888.2,253.4,803.2,2001.2,2862.5,209.9,80.6,19.8
0.127286,787.4,147.0,2025.8,274.1,2899.2,313.6,803.2,1998.5,2858.8,210.3,80.6,19.9
0.129286,795.8,149.0,2043.3,253.3,2901.9,362.5,803.2,1996,2855.2,210.7,80.6,20.2
0.131286,805.0,150.4,2047.1,232.3,2886.9,401.4,803.2,1993.7,2851.8,211.1,80.6,20.3
0.133286,813.7,150.1,2040.8,217.5,2851.5,412.6,803.3,1991.5,2848.5,211.4,80.5,20.4
0.135286,820.6,147.6,2028.9,207.0,2815.7,376.2,803.4,1989.6,2845.4,211.8,80.4,20.2
0.137286,826.2,145.2,2014.7,195.6,2798.1,317.5,803.6,1987.8,2842.6,212.2,80.3,19.7
0.139286,830.3,145.9,2002.8,186.2,2798.1,274.3,803.9,1986.2,2840,212.5,80.1,19.1
0.141286,833.5,147.5,1990.4,182.4,2803.8,246.1,804.3,1984.7,2837.5,212.9,79.9,18.4
0.143286,836.2,146.3,1975.2,188.2,2809.6,230.4,804.9,1983.4,2835.4,213.2,79.6,17.8
0.145286,838.2,141.5,1959.3,199.9,2816.4,223.4,805.7,1982.3,2833.4,213.6,79.3,17.4
0.147286,839.0,131.6,1948.3,203.6,2826.8,226.8,806.6,1981.2,2831.7,213.9,78.9,17
0.149286,839.2,120.0,1950.6,192.5,2842.3,245.5,807.8,1980.3,2830.2,214.2,78.5,16.7
0.151286,839.5,110.7,1963.3,179.0,2865.5,277.9,809.1,1979.5,2828.9,214.5,78.1,16.5
0.153286,839.8,106.2,1979.2,176.1,2888.2,309.0,810.8,1978.8,2827.9,214.8,77.6,16.2
0.155286,839.8,105.2,1993.3,183.1,2892.8,322.3,812.6,1978.1,2827,215.1,77,16
0.157286,840.7,107.1,2001.1,186.5,2870.0,314.5,814.7,1977.4,2826.2,215.4,76.5,15.7
0.159286,844.0,112.4,1995.8,172.1,2832.4,294.7,817.1,1976.8,2825.7,215.6,75.9,15.4
0.161286,849.7,119.2,1980.8,148.8,2795.7,276.5,819.8,1976.1,2825.2,215.9,75.3,15.1
0.163286,855.1,124.8,1964.2,132.3,2777.9,271.0,822.7,1975.4,2824.8,216.1,74.7,14.9
0.165286,858.1,130.6,1949.4,127.9,2784.7,280.7,825.9,1974.7,2824.6,216.3,74.1,14.7
0.167286,859.0,139.0,1936.3,133.7,2806.9,302.2,829.3,1973.8,2824.3,216.5,73.6,14.5
0.169286,859.1,148.5,1929.6,143.8,2824.8,326.8,833,1972.9,2824.1,216.8,73.2,14.3
0.171286,860.5,157.8,1931.9,151.8,2833.6,353.7,836.9,1971.8,2823.9,216.9,72.8,14.1
0.173286,863.7,164.8,1941.4,153.7,2841.7,371.2,841.1,1970.6,2823.6,217.1,72.4,14
0.175286,865.9,170.2,1950.5,153.4,2847.7,364.5,845.5,1969.3,2823.3,217.3,72.2,13.9
0.177286,864.8,177.7,1952.4,158.2,2838.1,338.9,850.1,1967.7,2822.9,217.5,72,13.8
0.179286,861.1,187.7,1944.3,170.7,2812.4,311.5,854.8,1966,2822.4,217.6,71.9,13.7
0.181286,858.4,198.4,1929.4,190.2,2786.0,290.5,859.7,1964.1,2821.7,217.7,71.9,13.6
0.183286,860.3,207.5,1917.5,212.2,2778.0,291.8,864.7,1961.9,2820.8,217.9,72,13.7
0.185286,866.5,211.9,1918.2,223.6,2790.2,330.0,869.8,1959.6,2819.8,218,72.1,14
0.187286,874.5,211.9,1933.1,211.7,2818.7,421.0,875,1957,2818.6,218.1,72.3,14.4
0.189286,880.0,212.1,1951.6,186.2,2856.7,560.2,880.1,1954.3,2817.1,218.2,72.5,14.9
0.191286,883.3,210.9,1965.9,161.0,2894.2,725.8,885.2,1951.3,2815.4,218.3,72.6,15.5
0.193286,885.5,199.8,1971.6,143.8,2894.9,813.2,890.3,1948.1,2813.4,218.4,72.8,16
0.195286,887.4,180.6,1970.2,133.4,2865.5,752.2,895.3,1944.7,2811.2,218.4,72.9,16.6
0.197286,889.4,162.5,1965.7,125.3,2844.0,626.6,900.1,1941.1,2808.7,218.5,73,17.2
0.199286,891.5,153.2,1960.0,120.8,2827.9,534.8,904.8,1937.3,2806,218.6,73,17.8
0.201286,893.0,152.8,1953.0,121.0,2804.2,494.6,909.2,1933.4,2802.9,218.6,73,18.3
0.203286,893.0,159.6,1945.6,125.2,2773.8,487.9,913.3,1929.3,2799.6,218.7,73,18.8
0.205286,891.1,173.6,1941.1,131.5,2757.5,504.4,917.2,1925.1,2796.1,218.7,72.9,19.1
0.207286,887.7,195.6,1940.6,141.2,2766.4,546.0,920.7,1920.8,2792.3,218.8,72.9,19.3
0.209286,884.3,217.1,1942.9,155.2,2784.8,612.6,923.8,1916.5,2788.2,218.8,72.8,19.5
0.211286,881.8,232.4,1947.2,176.0,2793.3,714.0,926.4,1912.1,2783.9,218.8,72.7,19.5
0.213286,880.8,243.1,1953.1,202.1,2787.6,831.3,928.6,1907.7,2779.4,218.9,72.6,19.4
0.215286,881.3,250.1,1955.9,227.4,2763.3,903.2,930.4,1903.2,2774.7,218.9,72.5,19.3
0.217286,883.2,253.8,1950.2,246.4,2728.0,885.3,931.5,1898.9,2769.8,218.9,72.5,19
0.219286,886.1,256.0,1936.4,251.1,2710.0,799.2,932.2,1894.6,2764.8,219,72.4,18.5
0.221286,889.4,258.1,1917.4,250.9,2703.7,682.1,932.2,1890.4,2759.7,219,72.4,18.1
0.223286,893.1,258.1,1895.7,259.4,2698.1,559.3,931.7,1886.3,2754.4,219,72.4,17.8
0.225286,896.9,255.8,1875.1,279.5,2695.8,455.1,930.5,1882.3,2749,219,72.3,17.8
0.227286,900.8,252.3,1861.2,306.8,2698.0,381.4,928.8,1878.6,2743.7,219.1,72.3,18
0.229286,904.2,244.3,1861.7,320.0,2698.6,348.0,926.3,1875,2738.2,219.1,72.3,18.3
0.231286,907.9,232.9,1870.8,313.5,2694.0,340.2,923.3,1871.7,2732.8,219.1,72.3,18.7
0.233286,912.5,227.9,1875.1,310.5,2691.3,336.7,919.6,1868.6,2727.4,219.2,72.4,19
0.235286,917.5,235.5,1869.9,332.8,2705.0,321.5,915.2,1865.8,2722,219.2,72.4,19.1
0.237286,921.0,258.7,1856.7,396.8,2733.6,301.1,910.3,1863.2,2716.7,219.2,72.5,19
0.239286,921.5,287.3,1837.0,491.8,2755.4,290.4,904.7,1861,2711.5,219.3,72.5,18.8
0.241286,921.1,305.4,1813.1,581.7,2762.8,293.3,898.6,1859.1,2706.4,219.3,72.5,18.6
0.243286,920.9,301.9,1797.7,611.2,2759.3,312.5,891.9,1857.4,2701.5,219.4,72.5,18.5
0.245286,919.6,284.0,1797.7,572.5,2751.4,352.8,884.6,1856.1,2696.7,219.4,72.5,18.5
0.247286,915.9,262.7,1811.5,491.7,2739.3,415.3,876.9,1855.1,2692.1,219.5,72.5,18.7
0.249286,910.6,247.2,1826.2,416.8,2719.2,459.7,868.7,1854.5,2687.6,219.5,72.4,18.9
0.251286,904.2,238.0,1837.9,367.8,2698.3,470.0,860,1854.1,2683.4,219.6,72.3,19
0.253286,898.0,236.9,1851.9,345.3,2693.9,480.2,851,1854.1,2679.4,219.6,72.1,19.1
0.255286,892.2,242.1,1869.6,330.2,2704.9,498.4,841.7,1854.3,2675.6,219.7,72,18.9
0.257286,884.6,254.5,1885.3,313.3,2716.7,493.3,832.1,1854.8,2672,219.7,71.9,18.5
0.259286,874.4,274.3,1890.5,308.1,2712.5,450.7,822.3,1855.6,2668.6,219.8,71.8,18
0.261286,860.9,294.0,1884.4,313.7,2692.2,385.3,812.3,1856.6,2665.4,219.8,71.7,17.5
0.263286,848.4,293.8,1869.8,306.3,2665.7,321.9,802.3,1857.9,2662.5,219.9,71.6,17.1
0.265286,838.7,275.9,1859.4,277.3,2646.2,289.4,792.2,1859.3,2659.8,219.9,71.5,16.8
0.267286,826.6,263.5,1860.4,246.7,2638.6,309.8,782.1,1860.9,2657.4,219.9,71.4,16.6
0.269286,811.4,265.7,1864.2,227.3,2644.6,365.6,772.1,1862.7,2655.1,220,71.4,16.4
0.271286,792.9,274.1,1858.6,217.0,2657.0,387.6,762.3,1864.5,2653.1,220,71.4,16.4
0.273286,772.2,280.2,1841.3,219.8,2656.8,339.8,752.7,1866.5,2651.2,220,71.5,16.3
0.275286,751.7,275.0,1821.7,227.7,2640.5,267.2,743.3,1868.5,2649.6,220,71.6,16.4
0.277286,733.8,252.2,1811.1,221.8,2618.5,195.3,734.3,1870.5,2648.1,220,71.7,16.5
0.279286,717.4,225.8,1820.0,201.1,2608.1,152.2,725.7,1872.5,2646.8,220,71.9,16.7
0.281286,698.3,204.2,1840.1,177.2,2611.3,133.7,717.6,1874.5,2645.6,220,72,16.9
0.283286,681.5,187.0,1856.6,158.6,2621.1,127.2,710,1876.5,2644.6,220,72.2,17.1
0.285286,671.6,171.3,1865.9,145.4,2627.1,118.1,702.9,1878.3,2643.8,219.9,72.4,17.1
0.287286,667.7,154.2,1872.0,133.4,2626.9,99.4,696.4,1880,2643,219.9,72.6,17
0.289286,667.0,137.7,1876.7,122.3,2625.7,81.0,690.6,1881.6,2642.4,219.8,72.8,16.9
0.291286,665.8,123.3,1882.7,113.6,2628.4,70.0,685.5,1883,2641.9,219.8,72.9,16.7
0.293286,661.8,112.9,1891.7,109.9,2634.9,68.6,681.1,1884.2,2641.4,219.7,73,16.4
0.295286,655.6,105.3,1904.3,109.9,2642.0,74.8,677.5,1885.3,2641.1,219.6,73.1,16
0.297286,647.0,99.4,1920.8,112.4,2648.6,89.4,674.6,1886.1,2640.8,219.6,73,15.6
0.299286,637.4,96.0,1936.8,116.6,2654.1,111.2,672.6,1886.7,2640.7,219.5,72.9,15
0.301286,626.6,95.6,1949.6,122.3,2659.6,136.5,671.3,1887,2640.6,219.4,72.6,14.3
0.303286,614.7,100.1,1955.3,131.9,2663.4,153.9,670.9,1887.2,2640.5,219.3,72.3,13.5
