time,f1,b1,f2,b2,f3,b3,f1p,f2p,f3p,f0,intensity,harmonicity
0.025578,446.3,83.1,2173.5,85.0,2886.7,181.1,475.2,2158.8,2889.4,271.4,80.7,3.4
0.027578,465.4,80.6,2164.2,86.8,2882.8,170.0,476,2157.9,2889.5,271.4,81.2,4.9
0.029578,478.4,78.4,2154.9,87.2,2881.8,160.0,477.4,2156.6,2889.5,271.5,81.7,6.7
0.031578,487.0,78.6,2148.1,85.1,2883.8,155.2,479.2,2154.8,2889.5,271.6,82,8.5
0.033578,492.1,80.3,2145.3,81.6,2887.9,157.3,481.4,2152.9,2889.4,271.7,82.3,10.3
0.035578,495.3,81.8,2145.1,78.1,2893.2,164.3,484.1,2150.8,2889.2,271.8,82.6,11.9
0.037578,496.9,81.8,2146.1,75.2,2898.2,172.3,487.1,2149,2888.8,271.9,82.8,13.5
0.039578,497.7,80.9,2147.4,72.5,2901.8,177.2,490.3,2147.5,2888.3,272.1,83.1,15
0.041578,498.8,80.1,2147.9,69.6,2903.0,177.0,493.8,2146.5,2887.5,272.2,83.3,16.4
0.043578,500.2,79.8,2147.2,67.2,2900.2,173.0,497.4,2146.2,2886.4,272.3,83.6,17.6
0.045578,502.1,80.0,2146.4,65.6,2893.0,168.7,501,2146.6,2885,272.5,83.8,18.4
0.047578,504.0,80.0,2146.7,64.6,2882.8,167.3,504.7,2147.9,2883.2,272.6,84,18.7
0.049578,505.8,79.5,2148.5,63.7,2872.1,168.5,508.3,2149.9,2881.2,272.7,84.1,18.8
0.051578,508.0,77.6,2151.4,62.2,2862.2,171.0,511.7,2152.6,2878.8,272.9,84.3,18.6
0.053578,510.6,74.0,2154.7,60.1,2855.8,173.5,515,2155.9,2876.1,273,84.5,18.2
0.055578,513.9,68.3,2158.7,57.5,2852.6,176.1,518.2,2159.6,2873.1,273.1,84.7,17.9
0.057578,517.6,61.8,2163.6,55.0,2853.4,177.1,521,2163.4,2869.9,273.3,84.9,17.4
0.059578,521.1,56.2,2169.0,52.9,2858.2,174.0,523.7,2167.1,2866.5,273.4,85.1,16.7
0.061578,524.7,51.7,2174.2,51.1,2865.7,166.4,526.1,2170.3,2863.1,273.5,85.2,15.9
0.063578,527.8,48.0,2177.1,50.2,2871.9,159.7,528.3,2172.7,2859.6,273.6,85.3,15.4
0.065578,530.2,44.3,2177.4,50.9,2875.1,159.0,530.2,2174.1,2856.2,273.8,85.4,15.3
0.067578,532.0,40.8,2175.8,53.1,2874.7,166.1,531.9,2174.2,2852.9,273.9,85.4,15.7
0.069578,533.4,38.0,2173.5,56.6,2871.2,178.5,533.4,2172.8,2849.8,273.9,85.5,16.6
0.071578,534.7,36.0,2170.3,61.8,2864.2,193.1,534.7,2169.6,2847,274,85.5,17.6
0.073578,536.0,34.9,2165.6,68.1,2854.0,203.1,535.9,2164.7,2844.5,274.1,85.6,18.7
0.075578,537.4,34.3,2157.9,75.8,2840.6,205.3,537,2157.8,2842.4,274.1,85.6,19.7
0.077578,539.0,34.1,2147.1,83.7,2827.8,199.8,537.9,2149.2,2840.7,274.1,85.7,20.7
0.079578,540.5,34.1,2134.5,90.2,2820.0,191.3,538.8,2138.8,2839.4,274.2,85.7,21.8
0.081578,541.9,34.2,2120.7,95.2,2818.3,182.6,539.7,2126.8,2838.5,274.2,85.8,22.8
0.083578,542.9,34.0,2107.8,98.7,2821.6,175.9,540.5,2113.5,2838,274.2,85.9,23.5
0.085578,543.6,33.4,2094.7,101.5,2827.0,171.4,541.2,2099.1,2837.9,274.1,86,23.8
0.087578,544.0,32.5,2081.4,103.3,2832.6,170.3,542,2084,2838.1,274.1,86.1,23.5
0.089578,544.1,31.7,2068.6,103.3,2837.8,172.2,542.7,2068.3,2838.6,274,86.2,22.7
0.091578,543.9,31.3,2055.9,101.5,2843.8,177.0,543.5,2052.5,2839.3,273.9,86.4,21.7
0.093578,543.7,31.1,2043.4,97.8,2849.5,184.4,544.2,2036.9,2840.3,273.8,86.5,20.7
0.095578,543.6,31.2,2028.7,92.2,2853.9,193.6,544.8,2021.7,2841.3,273.7,86.7,20.3
0.097578,544.0,31.0,2012.3,85.3,2854.6,199.3,545.5,2007.1,2842.4,273.6,86.8,20.3
0.099578,544.4,30.2,1996.4,78.4,2851.6,197.1,546.1,1993.4,2843.4,273.4,86.9,20.6
0.101578,544.9,28.7,1980.8,71.4,2846.8,188.1,546.6,1980.7,2844.4,273.3,87.1,21.1
0.103578,545.3,26.8,1967.5,64.9,2843.6,178.3,547,1969,2845.3,273.1,87.2,21.7
0.105578,545.7,24.9,1955.7,58.6,2844.0,171.6,547.3,1958.3,2846.1,272.9,87.4,22.1
0.107578,546.1,23.3,1945.8,53.3,2847.5,170.2,547.5,1948.8,2846.6,272.7,87.6,22.6
0.109578,546.3,22.5,1937.7,49.4,2851.4,173.0,547.6,1940.2,2847,272.5,87.7,23.2
0.111578,546.3,22.0,1930.5,46.6,2853.1,177.8,547.6,1932.5,2847.2,272.3,87.9,23.7
0.113578,546.4,21.9,1924.6,44.5,2850.7,181.7,547.4,1925.5,2847.2,272.1,88,24.1
0.115578,546.6,21.9,1919.1,42.8,2844.1,183.9,547.2,1919.2,2846.9,271.8,88.2,24.4
0.117578,546.8,21.9,1913.8,41.4,2836.2,185.3,546.8,1913.5,2846.5,271.6,88.4,24.5
0.119578,547.0,22.1,1908.5,40.5,2830.5,188.1,546.3,1908.1,2846,271.3,88.5,24.5
0.121578,547.1,22.7,1903.0,40.1,2828.1,194.9,545.7,1903,2845.3,271.1,88.7,24.3
0.123578,547.0,23.5,1897.7,40.2,2829.2,206.6,545.1,1898.1,2844.5,270.8,88.9,24.1
0.125578,546.8,24.8,1892.4,40.7,2833.3,225.8,544.4,1893.4,2843.7,270.5,89.1,23.9
0.127578,546.5,26.1,1887.6,41.3,2840.7,254.3,543.7,1888.8,2842.8,270.3,89.2,23.7
0.129578,546.0,27.4,1883.7,41.7,2850.8,292.8,542.9,1884.4,2841.9,270,89.4,23.4
0.131578,545.2,28.4,1880.7,41.5,2863.3,347.3,542.2,1880.3,2841,269.7,89.5,23.1
0.133578,544.1,29.0,1878.6,40.5,2873.9,412.2,541.6,1876.5,2840.2,269.5,89.6,22.7
0.135578,542.7,29.4,1877.1,38.8,2876.4,483.1,541,1873,2839.5,269.2,89.6,22.4
0.137578,541.0,29.1,1875.2,36.8,2859.5,535.3,540.4,1870,2838.9,269,89.6,22.2
0.139578,539.2,28.3,1872.4,35.1,2829.9,536.5,540,1867.6,2838.4,268.7,89.5,22
0.141578,537.2,27.3,1867.8,33.2,2811.4,474.8,539.7,1865.8,2838,268.5,89.3,21.8
0.143578,535.5,26.5,1861.7,30.9,2814.2,382.8,539.5,1864.7,2837.8,268.3,88.9,21.3
0.145578,534.1,26.3,1853.3,28.4,2823.1,288.3,539.4,1864.3,2837.7,268.1,88.4,20.3
