time,f1,b1,f2,b2,f3,b3,f1p,f2p,f3p,f0,intensity,harmonicity
0.025871,263.0,230.3,2449.9,231.1,3271.7,111.7,264.3,2636.4,3316.9,230,57.2,-0.8
0.027871,274.3,105.5,2478.4,306.6,3261.2,146.9,265,2636.1,3320.3,229.3,58.8,-0.2
0.029871,277.7,62.6,2519.8,431.0,3264.9,192.1,266,2635.5,3325.9,228.7,60.4,1.2
0.031871,280.4,51.2,2605.5,606.6,3279.7,261.6,267.5,2634.8,3333.7,228,62,2.8
0.033871,283.2,54.8,2737.0,570.8,3324.9,335.4,269.3,2633.9,3343.6,227.3,63.2,4.4
0.035871,286.9,68.1,2739.7,348.9,3371.1,316.4,271.6,2632.9,3355.4,226.7,64.3,6
0.037871,292.1,90.4,2702.9,207.4,3382.2,288.1,274.3,2631.8,3369.2,226,65.2,7.2
0.039871,298.6,118.8,2678.2,138.0,3381.0,278.8,277.4,2630.6,3384.6,225.4,65.9,8.3
0.041871,303.1,143.5,2665.0,111.4,3382.5,282.1,280.9,2629.5,3401.7,224.8,66.6,9.2
0.043871,302.6,155.6,2657.3,108.5,3396.8,304.8,284.7,2628.4,3420.1,224.3,67.4,10.1
0.045871,300.0,155.8,2651.0,119.3,3430.3,347.4,289,2627.5,3439.7,223.8,68.1,11
0.047871,300.2,152.3,2642.3,132.9,3476.9,382.2,293.6,2626.8,3460.4,223.3,68.8,12.1
0.049871,303.4,149.7,2630.7,135.4,3511.5,382.3,298.5,2626.3,3481.8,222.9,69.5,13.3
0.051871,306.0,148.0,2621.9,124.8,3523.8,370.3,303.8,2626.1,3503.9,222.5,70.2,14.6
0.053871,305.7,146.1,2618.9,111.4,3534.4,370.6,309.4,2626.3,3526.3,222.3,70.7,15.9
0.055871,302.6,143.1,2622.6,98.6,3567.9,362.1,315.3,2626.9,3548.9,222,71.2,16.9
0.057871,299.8,140.5,2630.9,85.7,3617.5,311.2,321.5,2628,3571.5,221.9,71.6,17.6
0.059871,300.7,141.2,2639.5,74.2,3659.5,248.3,327.9,2629.6,3593.8,221.7,72,18
0.061871,304.8,144.6,2647.0,68.3,3689.1,204.2,334.6,2631.7,3615.6,221.7,72.2,18.1
0.063871,309.1,148.4,2655.2,69.8,3708.5,182.5,341.5,2634.3,3636.9,221.7,72.4,18.2
0.065871,312.4,152.9,2665.5,75.9,3724.2,173.8,348.6,2637.5,3657.2,221.8,72.6,18.2
0.067871,316.1,158.4,2676.1,81.3,3739.0,169.0,355.8,2641.3,3676.6,221.9,72.6,18.2
0.069871,321.5,164.9,2682.8,84.0,3751.4,169.1,363.1,2645.6,3694.8,222,72.6,18.1
0.071871,328.5,171.7,2684.0,84.8,3760.7,176.6,370.6,2650.5,3711.7,222.2,72.5,17.9
0.073871,336.9,178.3,2681.3,83.5,3767.0,186.1,378,2655.9,3727.2,222.5,72.3,17.8
0.075871,347.2,184.0,2678.0,79.6,3769.0,189.0,385.5,2661.8,3741.2,222.7,72,17.7
0.077871,360.6,188.0,2675.8,73.9,3765.6,186.4,393,2668.1,3753.6,223,71.7,17.8
0.079871,378.3,188.8,2675.9,68.5,3757.1,187.1,400.3,2674.8,3764.3,223.4,71.2,18.2
0.081871,398.7,185.0,2678.9,65.4,3743.0,197.0,407.6,2681.8,3773.3,223.7,70.7,18.7
0.083871,419.0,177.9,2685.3,65.0,3726.1,211.9,414.7,2689.1,3780.6,224.1,70,19.1
0.085871,437.5,169.6,2694.0,65.8,3715.1,222.9,421.7,2696.5,3786.2,224.4,69.3,19.2
0.087871,454.6,158.8,2702.8,64.7,3715.9,226.7,428.4,2704,3790,224.8,68.6,18.7
0.089871,470.8,143.6,2709.4,59.8,3725.1,226.2,434.8,2711.6,3792.2,225.2,67.9,17.5
0.091871,484.7,126.4,2713.0,52.5,3735.4,226.6,440.9,2719,3792.8,225.6,67.2,16.1
0.093871,494.9,112.7,2715.4,46.1,3739.2,229.2,446.7,2726.3,3791.9,226,66.7,14.6
0.095871,500.8,106.0,2718.6,43.5,3732.1,232.2,452,2733.4,3789.5,226.4,66.3,13.5
0.097871,503.8,105.7,2722.4,45.1,3717.5,233.4,457,2740.1,3785.8,226.8,66.2,13.2
0.099871,505.1,108.6,2726.0,50.6,3705.4,227.2,461.5,2746.4,3781,227.2,66.2,13.3
0.101871,505.7,111.4,2728.9,58.9,3705.5,208.8,465.6,2752.2,3775,227.6,66.4,13.9
0.103871,505.3,112.4,2731.5,68.7,3716.7,183.5,469.1,2757.5,3768.2,227.9,66.7,14.6
0.105871,503.0,112.5,2734.6,76.5,3731.6,164.6,472.1,2762.1,3760.6,228.3,67.1,15.4
0.107871,498.1,115.1,2738.8,75.6,3747.3,160.4,474.5,2766.1,3752.4,228.7,67.4,16.2
0.109871,491.4,122.8,2743.1,64.5,3764.4,170.3,476.4,2769.4,3743.7,229.1,67.7,17.2
0.111871,483.5,137.3,2745.9,51.1,3779.4,187.4,477.8,2772,3734.8,229.4,68,18.2
0.113871,475.2,157.0,2747.1,41.3,3780.7,202.9,478.5,2773.8,3725.7,229.8,68.1,19.3
0.115871,467.1,177.7,2747.8,35.4,3761.8,209.4,478.7,2774.8,3716.6,230.2,68.2,20.2
0.117871,460.7,194.2,2749.1,31.2,3732.6,203.1,478.3,2775.1,3707.7,230.6,68.1,20.8
0.119871,457.8,203.3,2752.0,27.8,3708.9,190.3,477.3,2774.7,3699.2,230.9,68,21.4
0.121871,458.9,204.4,2756.7,25.2,3699.8,182.8,475.8,2773.6,3691.1,231.3,67.8,21.9
0.123871,461.8,201.3,2761.7,24.1,3705.5,184.8,473.8,2771.9,3683.5,231.7,67.5,22.2
0.125871,463.7,199.8,2765.9,24.4,3720.6,193.9,471.2,2769.6,3676.6,232.1,67.2,22.2
0.127871,462.8,203.9,2769.4,25.9,3736.2,211.6,468.2,2766.8,3670.5,232.5,66.9,22
0.129871,457.2,215.6,2772.5,28.8,3742.6,250.6,464.7,2763.6,3665.3,232.9,66.6,21.3
0.131871,445.8,231.1,2774.7,33.9,3732.3,326.4,460.8,2760,3660.9,233.3,66.3,20.5
0.133871,430.8,242.7,2775.4,42.2,3700.0,436.7,456.5,2756.1,3657.5,233.8,66.1,19.5
0.135871,417.3,247.8,2775.4,50.8,3667.1,497.4,451.9,2752.1,3655.1,234.2,65.9,18.8
0.137871,407.2,249.7,2776.8,55.5,3665.4,475.3,446.9,2748.1,3653.7,234.7,65.9,18.4
0.139871,400.6,250.3,2780.2,55.1,3677.8,416.4,441.7,2744.1,3653.2,235.1,66,18.3
0.141871,397.1,249.6,2783.2,51.0,3685.6,355.8,436.4,2740.2,3653.7,235.6,66.1,18.3
0.143871,395.5,246.3,2784.4,47.3,3693.4,308.5,430.8,2736.6,3655.1,236.1,66.3,18.5
0.145871,393.4,240.7,2783.4,49.0,3704.7,284.6,425.2,2733.4,3657.3,236.6,66.5,18.7
0.147871,390.2,235.4,2780.7,62.8,3714.3,290.3,419.5,2730.6,3660.3,237.1,66.7,19.1
0.149871,390.3,231.5,2771.8,99.9,3707.5,328.2,413.8,2728.3,3663.9,237.6,66.9,19.8
0.151871,396.9,227.7,2740.6,162.4,3666.1,351.5,408.2,2726.6,3668.2,238.1,67.1,20.7
0.153871,406.3,223.8,2685.7,202.6,3616.6,277.2,402.7,2725.6,3672.8,238.7,67.3,21.5
0.155871,413.5,222.7,2649.0,204.0,3595.5,197.5,397.3,2725.3,3677.8,239.2,67.4,22.1
0.157871,416.6,225.5,2645.8,211.2,3585.6,172.9,392.2,2725.8,3682.9,239.8,67.5,22.3
0.159871,417.1,230.8,2669.9,237.3,3578.1,193.1,387.2,2727,3688.1,240.3,67.6,22.2
0.161871,417.0,237.2,2715.4,265.5,3572.5,243.9,382.6,2729,3693.1,240.9,67.7,21.8
0.163871,418.8,241.2,2768.3,278.5,3570.6,313.7,378.3,2731.8,3697.8,241.4,67.8,21.4
0.165871,421.7,242.3,2816.3,281.1,3580.1,395.7,374.4,2735.2,3702.1,242,67.9,21.2
0.167871,420.2,247.6,2854.4,275.8,3618.6,466.1,370.9,2739.4,3705.8,242.6,68.1,21.4
0.169871,408.1,262.0,2861.3,265.2,3676.9,477.3,367.8,2744.2,3708.6,243.2,68.3,21.9
0.171871,389.8,270.5,2818.7,255.4,3716.3,440.0,365.1,2749.5,3710.6,243.8,68.6,22.6
0.173871,373.7,264.7,2755.7,223.1,3739.1,403.1,362.9,2755.3,3711.5,244.4,68.8,23.4
0.175871,368.7,251.1,2729.9,197.0,3748.4,427.8,361.2,2761.5,3711.1,245,69.1,24
0.177871,369.9,235.6,2731.7,185.2,3752.7,490.2,360,2767.8,3709.4,245.5,69.3,24.2
0.179871,368.5,222.6,2743.7,172.7,3751.9,516.4,359.3,2774.2,3706.2,246.1,69.5,24.1
0.181871,364.1,212.4,2755.1,161.2,3748.2,492.7,359.1,2780.6,3701.4,246.7,69.7,23.9
0.183871,359.6,202.8,2760.2,158.8,3748.6,465.2,359.4,2786.7,3694.9,247.3,69.9,23.7
0.185871,356.8,192.4,2759.7,166.0,3755.2,462.1,360.2,2792.4,3686.6,247.9,70.1,23.6
0.187871,356.3,181.1,2756.6,175.2,3761.4,495.9,361.5,2797.7,3676.5,248.5,70.3,23.8
0.189871,357.6,168.9,2750.5,177.3,3751.2,568.0,363.3,2802.2,3664.4,249,70.4,24.3
0.191871,358.1,157.4,2741.0,170.7,3707.0,628.5,365.5,2805.8,3650.4,249.6,70.7,25
0.193871,356.1,148.7,2735.2,159.2,3645.3,586.8,368.1,2808.5,3634.4,250.2,70.9,25.6
0.195871,352.7,142.6,2740.1,148.5,3607.0,485.3,371.1,2810,3616.5,250.7,71.2,26.2
0.197871,351.0,138.5,2756.2,138.9,3593.1,406.9,374.6,2810.1,3596.6,251.3,71.5,26.5
0.199871,352.7,136.3,2773.7,124.5,3584.8,364.7,378.3,2808.9,3574.8,251.8,71.7,26.7
0.201871,357.4,135.7,2781.8,107.7,3559.3,345.6,382.4,2806,3551,252.3,72,26.7
0.203871,364.2,135.5,2782.6,95.4,3506.6,332.2,386.8,2801.6,3525.5,252.8,72.2,26.7
0.205871,372.3,134.5,2781.1,86.7,3442.1,307.6,391.4,2795.3,3498.2,253.3,72.3,26.6
0.207871,381.4,132.4,2779.6,78.3,3392.8,274.4,396.2,2787.3,3469.3,253.7,72.4,26.3
0.209871,391.0,129.8,2779.9,72.0,3373.3,249.0,401.3,2777.5,3438.9,254.2,72.5,25.9
0.211871,400.7,127.4,2782.3,72.4,3376.8,236.7,406.4,2765.8,3407.1,254.6,72.5,25.3
0.213871,409.8,125.4,2786.6,84.1,3382.4,232.8,411.7,2752.3,3374,254.9,72.5,24.8
0.215871,418.0,121.7,2791.6,112.4,3376.6,239.5,417.1,2736.9,3339.8,255.3,72.5,24.3
0.217871,425.9,114.1,2793.6,164.3,3356.9,262.2,422.5,2719.8,3304.7,255.6,72.5,24
0.219871,433.6,102.3,2779.9,243.2,3317.6,295.2,427.9,2701,3268.8,255.9,72.4,23.8
0.221871,441.0,89.6,2726.1,310.3,3260.2,302.5,433.3,2680.6,3232.3,256.1,72.4,23.7
0.223871,447.8,80.2,2654.3,289.7,3212.1,282.7,438.6,2658.8,3195.5,256.3,72.4,23.6
0.225871,454.0,75.5,2610.0,231.5,3177.9,271.5,443.9,2635.7,3158.4,256.5,72.4,23.5
0.227871,459.8,74.2,2586.2,187.6,3150.7,263.1,449,2611.5,3121.3,256.6,72.5,23.1
0.229871,465.0,75.0,2570.6,158.2,3128.0,252.0,454,2586.3,3084.4,256.6,72.6,22.4
0.231871,469.2,77.6,2559.0,137.0,3106.8,253.4,458.9,2560.3,3048,256.7,72.7,21.7
0.233871,472.3,81.2,2551.1,122.5,3080.7,286.3,463.6,2533.9,3012.1,256.6,72.9,21
0.235871,474.2,85.2,2546.6,116.0,3037.8,367.1,468.1,2507.1,2977,256.6,73.2,20.5
0.237871,475.5,88.5,2545.3,121.1,2952.0,492.1,472.4,2480.3,2942.9,256.5,73.4,20.6
0.239871,477.0,90.0,2548.4,143.6,2805.0,574.2,476.5,2453.7,2910,256.3,73.7,21.2
0.241871,479.6,88.0,2563.5,198.3,2641.8,510.6,480.3,2427.6,2878.5,256.1,73.9,22.1
0.243871,483.4,82.7,2486.1,413.0,2623.9,214.5,483.9,2402.2,2848.5,255.9,74.1,22.9
0.245871,487.7,75.5,2411.3,356.0,2651.0,183.8,487.2,2377.7,2820.2,255.7,74.2,23.3
0.247871,492.2,66.8,2366.1,301.3,2670.3,167.0,490.3,2354.4,2793.8,255.4,74.3,23.1
0.249871,496.4,57.5,2331.6,260.4,2690.0,153.2,493,2332.5,2769.5,255.1,74.4,22.2
0.251871,499.9,49.2,2301.0,232.9,2715.3,136.7,495.5,2312.3,2747.3,254.8,74.5,20.8
0.253871,502.3,42.6,2271.2,219.4,2742.0,114.7,497.8,2293.9,2727.4,254.4,74.5,19.5
0.255871,503.5,38.3,2244.6,221.3,2759.3,94.8,499.7,2277.6,2710,254.1,74.5,18.3
0.257871,503.4,36.0,2224.4,237.0,2764.6,85.5,501.3,2263.4,2695,253.7,74.5,17.8
0.259871,502.3,34.9,2208.6,261.4,2763.1,88.5,502.7,2251.7,2682.7,253.4,74.4,17.7
0.261871,500.5,33.9,2192.9,287.6,2760.4,103.0,503.7,2242.4,2673,253,74.2,17.9
0.263871,498.2,32.6,2177.1,310.9,2758.6,128.2,504.5,2235.7,2666,252.7,74,18.1
0.265871,495.4,31.2,2164.1,333.5,2755.9,156.3,504.9,2231.7,2661.8,252.3,73.6,18
0.267871,492.4,30.1,2152.1,364.4,2748.5,166.3,505.1,2230.3,2660.4,252,73.1,17.1
