time,f1,b1,f2,b2,f3,b3,f1p,f2p,f3p,f0,intensity,harmonicity
0.025703,300.6,106.4,2856.2,265.4,3912.8,511.2,361.6,2878.1,3936.5,225.5,65,10
0.027703,306.2,95.1,2841.4,255.5,3875.5,540.9,361.7,2878.2,3937.6,225.5,66,22.8
0.029703,311.8,91.2,2836.0,263.4,3856.4,561.7,362,2878.4,3939.3,225.5,67,23.6
0.031703,315.2,88.3,2845.7,269.2,3848.4,609.4,362.3,2878.7,3941.8,225.5,67.9,17.5
0.033703,316.7,86.4,2860.8,257.8,3840.7,667.5,362.7,2879.1,3944.9,225.6,68.7,10.1
0.035703,318.2,87.1,2870.1,241.5,3829.0,700.0,363.2,2879.5,3948.7,225.7,69.4,6.7
0.037703,321.6,89.9,2876.4,231.8,3813.0,715.6,363.8,2880,3953.2,225.8,70,7.4
0.039703,327.7,93.0,2884.8,230.4,3802.1,738.9,364.5,2880.6,3958.3,225.9,70.3,8.8
0.041703,335.2,94.5,2898.4,233.1,3809.7,792.7,365.3,2881.3,3964,226.1,70.6,10.5
0.043703,342.6,94.6,2916.7,234.3,3844.2,892.5,366.2,2882,3970.3,226.3,70.8,12.1
0.045703,349.3,94.8,2932.5,231.7,3898.9,1024.3,367.1,2882.8,3977.1,226.5,70.8,13.4
0.047703,357.1,96.0,2942.7,224.0,3967.3,1180.6,368.1,2883.7,3984.4,226.7,70.8,14.4
0.049703,366.9,97.5,2946.3,207.1,4045.9,1332.2,369.2,2884.6,3992.2,227,70.7,15.3
0.051703,378.3,98.2,2942.4,181.6,4128.6,1425.9,370.3,2885.6,4000.5,227.3,70.5,16.1
0.053703,392.0,97.5,2930.6,154.4,4191.1,1397.8,371.5,2886.6,4009.1,227.6,70.1,16.5
0.055703,406.7,95.7,2915.7,134.9,4187.3,1245.3,372.8,2887.7,4018.1,227.9,69.7,16.7
0.057703,422.3,92.9,2902.0,122.6,4131.4,1059.7,374.1,2888.9,4027.4,228.2,69.3,16.2
0.059703,436.3,90.1,2893.6,114.6,4083.0,914.0,375.4,2890.1,4037,228.5,68.8,15.2
0.061703,446.7,88.4,2890.4,108.3,4074.5,821.7,376.8,2891.3,4046.9,228.9,68.5,14.1
0.063703,452.9,88.2,2888.9,102.9,4105.4,764.3,378.2,2892.6,4056.9,229.2,68.4,13.1
0.065703,453.6,89.0,2886.7,99.0,4157.7,730.8,379.6,2893.9,4067,229.6,68.5,12.7
0.067703,448.8,90.7,2883.1,97.3,4218.0,710.0,381.1,2895.2,4077.2,229.9,68.7,13
0.069703,439.7,93.6,2879.5,97.2,4276.6,687.6,382.6,2896.5,4087.5,230.3,69.2,13.8
0.071703,428.7,97.4,2876.5,97.0,4327.0,644.9,384,2897.9,4097.7,230.6,69.6,14.8
0.073703,417.4,101.5,2874.4,95.3,4365.8,583.3,385.5,2899.3,4107.9,231,70.1,15.9
0.075703,408.2,105.0,2874.4,93.3,4386.2,532.6,387,2900.7,4117.9,231.4,70.5,16.8
0.077703,401.1,107.8,2878.2,93.1,4388.1,510.7,388.5,2902.1,4127.8,231.7,70.8,17.5
0.079703,396.5,110.5,2886.2,96.3,4368.1,525.0,389.9,2903.5,4137.5,232.1,71,18.3
0.081703,394.0,113.4,2897.0,102.4,4328.1,561.6,391.3,2904.9,4146.9,232.4,71.1,19.1
0.083703,393.3,116.3,2909.4,110.0,4273.9,597.9,392.7,2906.3,4156,232.8,71.1,19.7
0.085703,394.3,117.8,2921.8,116.7,4223.8,611.8,394.1,2907.7,4164.8,233.1,71.1,20.1
0.087703,396.9,117.5,2934.9,122.0,4185.5,599.3,395.4,2909.1,4173.2,233.5,71,20.3
0.089703,400.8,115.2,2947.9,125.4,4163.4,569.4,396.6,2910.4,4181.1,233.8,70.8,20.2
0.091703,405.2,111.5,2958.9,128.8,4154.7,542.1,397.8,2911.8,4188.6,234.1,70.7,20.1
0.093703,409.3,107.3,2965.9,134.5,4152.5,531.2,399,2913.1,4195.5,234.5,70.5,19.9
0.095703,411.8,104.0,2964.1,142.9,4148.2,545.0,400,2914.4,4201.9,234.8,70.4,19.9
0.097703,412.0,102.4,2950.5,149.9,4133.7,579.6,401.1,2915.6,4207.8,235.1,70.4,19.8
0.099703,409.7,102.0,2928.2,150.5,4105.8,626.1,402,2916.8,4213,235.4,70.5,19.7
0.101703,405.8,101.6,2908.4,144.6,4070.7,672.8,402.8,2918,4217.6,235.7,70.6,19.6
0.103703,401.1,100.3,2895.6,135.9,4029.3,715.4,403.6,2919.2,4221.5,236.1,70.9,19.7
0.105703,396.5,97.8,2889.7,126.3,3992.0,736.4,404.3,2920.3,4224.8,236.4,71.1,19.9
0.107703,392.3,94.5,2886.8,114.2,3972.7,727.4,404.9,2921.3,4227.3,236.7,71.3,20.4
0.109703,388.8,91.6,2884.2,99.6,3983.9,690.4,405.4,2922.3,4229.1,237,71.5,21.1
0.111703,386.6,88.9,2880.9,85.3,4015.4,636.4,405.7,2923.3,4230.3,237.3,71.7,21.9
0.113703,385.7,85.5,2877.9,73.7,4049.4,578.7,406,2924.2,4230.7,237.6,71.8,22.7
0.115703,386.1,81.3,2877.2,67.2,4071.5,535.5,406.2,2925,4230.3,237.9,71.9,23.4
0.117703,387.6,76.8,2879.1,64.8,4083.8,501.8,406.3,2925.8,4229.2,238.2,71.9,24.1
0.119703,389.8,73.1,2882.5,64.0,4094.4,467.3,406.3,2926.5,4227.4,238.5,71.8,24.7
0.121703,392.0,70.8,2885.0,61.9,4108.9,428.2,406.1,2927.2,4224.8,238.9,71.8,25.3
0.123703,393.8,69.4,2884.7,56.9,4127.9,385.4,405.9,2927.8,4221.5,239.2,71.8,25.8
0.125703,394.7,68.7,2881.8,50.1,4146.7,347.2,405.5,2928.4,4217.5,239.5,71.8,26.1
0.127703,394.8,68.4,2878.2,43.0,4163.7,317.0,405,2928.9,4212.8,239.8,71.8,26.2
0.129703,393.8,68.2,2875.7,37.4,4176.9,300.0,404.5,2929.3,4207.5,240.2,71.8,26.1
0.131703,391.8,68.0,2875.0,33.7,4185.2,296.1,403.8,2929.7,4201.4,240.5,71.8,25.9
0.133703,389.1,67.8,2876.5,31.7,4187.4,301.6,403,2930,4194.7,240.9,71.8,25.7
0.135703,386.3,68.3,2880.8,31.5,4180.8,313.7,402.1,2930.3,4187.5,241.3,71.9,25.4
0.137703,383.7,68.9,2887.8,33.6,4166.3,335.7,401,2930.5,4179.6,241.6,71.9,25.1
0.139703,381.6,68.9,2897.6,38.9,4147.2,372.1,399.9,2930.7,4171.2,242,71.9,24.6
0.141703,380.2,68.8,2908.5,46.8,4131.9,400.4,398.7,2930.8,4162.2,242.4,71.9,24.1
0.143703,379.7,69.7,2919.5,55.8,4127.7,389.9,397.4,2930.8,4152.8,242.8,71.9,23.7
0.145703,379.8,71.7,2928.5,64.7,4134.2,341.5,396,2930.8,4142.9,243.2,71.9,23.4
0.147703,380.2,74.2,2936.0,76.1,4141.3,282.9,394.5,2930.8,4132.7,243.7,71.9,23.2
0.149703,380.7,77.1,2944.3,92.1,4143.5,239.6,392.9,2930.7,4122,244.1,71.9,23.1
0.151703,381.3,80.5,2956.0,107.4,4143.1,219.8,391.2,2930.5,4111.1,244.6,71.9,23.2
0.153703,381.9,83.5,2968.1,108.2,4143.5,222.0,389.4,2930.3,4099.9,245,71.9,23.2
0.155703,382.0,84.6,2971.7,91.1,4142.9,243.3,387.6,2930.1,4088.4,245.5,71.9,23.4
0.157703,381.6,83.9,2969.6,74.2,4134.3,272.1,385.7,2929.8,4076.7,246,72,23.6
0.159703,380.7,82.2,2969.1,65.0,4113.4,291.8,383.7,2929.5,4064.9,246.6,72,24
0.161703,379.9,80.8,2972.8,62.4,4092.6,295.1,381.6,2929.1,4053,247.1,72.1,24.5
0.163703,379.5,80.2,2979.5,63.0,4085.4,295.2,379.5,2928.7,4041.1,247.6,72.1,24.9
0.165703,379.3,80.5,2985.6,64.5,4096.1,305.5,377.4,2928.3,4029.1,248.2,72.2,25.1
0.167703,379.2,81.0,2987.6,66.0,4113.9,331.1,375.2,2927.8,4017.2,248.8,72.2,25.3
0.169703,378.7,80.9,2986.5,69.3,4130.0,380.6,372.9,2927.3,4005.4,249.4,72.2,25.3
0.171703,378.0,79.8,2985.0,76.7,4142.7,461.7,370.7,2926.8,3993.7,250,72.2,25.3
0.173703,377.3,78.2,2984.1,90.6,4155.5,591.5,368.4,2926.3,3982.2,250.7,72.2,25.3
0.175703,376.9,77.2,2983.3,110.5,4158.2,759.3,366,2925.7,3970.9,251.4,72.1,25.2
0.177703,376.8,77.3,2980.1,134.4,4117.7,919.5,363.7,2925.1,3959.8,252,72.1,25.1
0.179703,376.6,78.9,2972.3,151.1,4034.7,930.5,361.3,2924.5,3949,252.7,72,24.9
0.181703,376.0,81.6,2962.2,149.4,3974.4,823.7,358.9,2923.9,3938.6,253.5,71.9,24.6
0.183703,374.7,84.7,2955.6,134.3,3946.0,705.7,356.6,2923.2,3928.5,254.2,71.8,24.3
0.185703,372.9,88.0,2955.9,118.3,3939.7,612.9,354.2,2922.5,3918.8,255,71.6,24
0.187703,371.1,92.2,2961.4,107.4,3943.0,538.7,351.9,2921.9,3909.5,255.7,71.4,23.7
0.189703,369.3,97.9,2968.3,102.3,3945.6,473.7,349.5,2921.2,3900.7,256.5,71.1,23.3
0.191703,367.4,103.2,2969.8,105.1,3943.4,433.7,347.2,2920.5,3892.4,257.3,70.8,22.9
0.193703,364.6,106.1,2957.3,113.6,3938.2,421.1,344.9,2919.7,3884.5,258.1,70.5,22.5
0.195703,361.2,107.2,2929.4,114.0,3935.2,430.8,342.6,2919,3877.2,259,70.1,21.9
0.197703,358.2,109.4,2903.0,99.5,3938.1,460.4,340.4,2918.2,3870.4,259.8,69.7,21.1
0.199703,355.8,113.7,2887.8,82.6,3935.4,502.9,338.2,2917.5,3864.1,260.7,69.3,20.1
0.201703,353.6,118.1,2882.1,72.6,3912.8,522.1,336.1,2916.7,3858.4,261.5,69.1,19
0.203703,350.7,120.3,2881.1,67.2,3874.8,499.9,334,2915.9,3853.2,262.4,68.9,18.1
0.205703,346.3,118.1,2883.1,64.7,3840.2,454.6,332,2915.1,3848.6,263.3,68.9,17.5
0.207703,339.6,110.5,2887.6,64.8,3816.1,404.7,330,2914.3,3844.6,264.2,69.2,17.2
0.209703,331.5,99.0,2894.3,68.8,3806.3,366.3,328,2913.5,3841.1,265,69.6,17.2
0.211703,323.1,86.5,2903.1,78.1,3806.6,348.0,326.2,2912.7,3838.2,265.9,70.2,17.3
0.213703,315.2,75.1,2916.1,92.8,3811.4,347.9,324.4,2911.9,3835.8,266.8,70.9,17.5
0.215703,308.5,66.6,2932.4,103.4,3816.7,363.2,322.7,2911,3833.9,267.7,71.6,17.9
0.217703,303.4,60.1,2942.3,99.6,3819.5,393.2,321,2910.1,3832.6,268.6,72.2,18.6
0.219703,299.0,54.0,2942.1,91.6,3817.2,441.7,319.4,2909.2,3831.7,269.5,72.8,19.5
0.221703,295.5,49.0,2937.1,91.4,3808.8,485.7,317.9,2908.3,3831.3,270.4,73.2,20.4
0.223703,292.5,44.9,2929.4,101.4,3796.0,497.0,316.5,2907.4,3831.4,271.2,73.5,21.2
0.225703,290.1,41.6,2915.5,117.7,3785.8,479.4,315.1,2906.5,3831.9,272.1,73.7,21.6
0.227703,288.7,39.3,2893.6,129.6,3783.3,464.9,313.8,2905.5,3832.8,273,73.7,21.4
0.229703,288.8,38.4,2871.0,130.1,3786.3,473.0,312.6,2904.5,3834,273.8,73.6,20.8
0.231703,290.9,39.4,2859.4,124.1,3780.1,505.6,311.5,2903.5,3835.6,274.7,73.4,20
0.233703,295.6,42.2,2854.3,118.2,3749.2,547.7,310.4,2902.4,3837.4,275.5,73.1,19.2
0.235703,302.3,45.4,2847.0,112.8,3708.3,575.0,309.5,2901.4,3839.5,276.4,72.7,18.5
0.237703,310.4,48.2,2835.4,106.1,3690.8,596.1,308.6,2900.3,3841.9,277.2,72.4,17.9
0.239703,317.3,49.9,2824.6,99.4,3719.7,633.2,307.8,2899.1,3844.4,278,72.1,17.3
0.241703,320.2,49.8,2818.5,96.1,3782.9,681.1,307,2898,3847,278.8,72.1,16.8
0.243703,318.2,47.7,2817.9,97.7,3852.6,718.8,306.4,2896.8,3849.7,279.6,72.2,16.5
0.245703,312.7,43.7,2822.4,100.7,3896.1,730.4,305.8,2895.5,3852.5,280.4,72.6,16.6
0.247703,307.0,39.3,2827.0,96.4,3911.7,713.2,305.3,2894.2,3855.3,281.2,73.1,17.4
0.249703,302.7,35.5,2827.2,82.5,3913.5,676.6,304.8,2892.9,3858,282,73.6,18.6
0.251703,300.3,33.4,2824.1,67.0,3906.0,644.6,304.4,2891.6,3860.6,282.7,74,20
0.253703,299.3,32.4,2822.4,54.7,3886.0,628.8,304.1,2890.2,3863.2,283.4,74.4,21.3
0.255703,299.5,32.2,2825.2,46.9,3859.3,629.6,303.8,2888.7,3865.5,284.2,74.6,22.3
0.257703,300.6,32.8,2831.6,41.6,3843.5,643.9,303.6,2887.2,3867.7,284.9,74.8,22.6
0.259703,302.8,34.4,2839.5,37.1,3850.5,671.7,303.5,2885.7,3869.6,285.6,74.8,22.7
0.261703,305.6,36.8,2845.7,33.6,3878.2,701.1,303.4,2884.1,3871.2,286.3,74.8,22.6
0.263703,309.0,39.6,2850.0,31.1,3913.2,718.0,303.4,2882.5,3872.5,287,74.7,22.6
0.265703,311.9,42.1,2852.9,30.1,3936.7,716.1,303.4,2880.8,3873.4,287.7,74.6,22.8
0.267703,313.8,43.3,2856.2,30.6,3942.5,701.7,303.4,2879.1,3873.9,288.3,74.5,23.6
0.269703,314.3,42.6,2860.0,32.6,3930.7,678.3,303.5,2877.4,3874,289,74.4,24.6
0.271703,313.6,40.0,2863.6,36.1,3908.9,646.4,303.6,2875.6,3873.6,289.6,74.3,25.7
0.273703,312.1,36.1,2866.9,42.4,3880.8,608.3,303.8,2873.7,3872.8,290.3,74.3,26.7
0.275703,310.5,31.6,2870.2,53.4,3849.5,580.6,304,2871.8,3871.4,290.9,74.3,27.3
0.277703,308.9,26.8,2875.6,74.0,3813.3,572.5,304.2,2869.9,3869.5,291.5,74.3,27.3
0.279703,307.5,22.9,2887.0,106.0,3779.5,584.2,304.4,2867.9,3867,292.2,74.3,26.9
0.281703,306.3,20.1,2906.2,131.9,3761.7,613.7,304.7,2865.9,3864,292.8,74.4,26.4
0.283703,304.9,17.7,2923.5,122.5,3763.4,651.9,305,2863.9,3860.4,293.4,74.5,26
0.285703,303.5,15.8,2928.2,92.1,3769.1,676.8,305.2,2861.9,3856.2,294,74.6,25.8
0.287703,302.2,14.4,2928.3,68.5,3765.0,684.7,305.5,2859.8,3851.4,294.5,74.8,26.2
0.289703,301.5,13.8,2929.2,57.7,3751.7,669.8,305.9,2857.6,3846.1,295.1,74.9,26.9
0.291703,301.4,13.8,2932.5,56.0,3738.0,639.6,306.2,2855.5,3840.1,295.7,75,27.7
0.293703,301.8,14.2,2938.8,59.5,3727.3,605.2,306.5,2853.3,3833.6,296.2,75,28.2
0.295703,302.7,14.8,2946.3,64.9,3719.4,581.2,306.8,2851.2,3826.4,296.8,75,28.2
0.297703,303.9,15.2,2952.1,69.7,3712.4,586.5,307.1,2849,3818.8,297.3,74.9,27.5
0.299703,305.4,15.2,2955.7,74.9,3706.8,635.7,307.4,2846.8,3810.5,297.8,74.9,26.1
0.301703,307.0,15.2,2958.8,82.8,3706.0,734.8,307.7,2844.6,3801.8,298.3,74.8,24.5
0.303703,308.6,15.3,2963.2,96.5,3711.7,905.4,307.9,2842.4,3792.5,298.8,74.7,23.2
0.305703,309.5,15.5,2967.3,117.0,3718.3,1152.6,308.2,2840.3,3782.8,299.3,74.7,22.8
0.307703,309.7,15.6,2965.0,143.9,3708.6,1417.8,308.5,2838.1,3772.6,299.7,74.7,23.4
0.309703,309.3,15.2,2946.2,179.5,3679.7,1576.0,308.7,2836,3762.1,300.2,74.8,24.9
0.311703,308.7,14.4,2907.4,213.1,3667.0,1536.0,308.9,2833.9,3751.2,300.6,74.9,26.6
0.313703,308.3,13.6,2858.1,229.5,3670.7,1397.5,309.1,2831.8,3739.9,301,75,28.2
0.315703,308.0,12.8,2820.7,225.1,3669.5,1279.4,309.3,2829.8,3728.4,301.3,75.1,29.3
0.317703,308.1,12.3,2805.4,213.0,3666.3,1234.3,309.4,2827.8,3716.6,301.7,75.2,29.7
0.319703,308.4,12.2,2805.9,198.6,3681.5,1281.4,309.6,2825.9,3704.7,302,75.2,29.7
0.321703,308.8,12.3,2810.3,181.3,3734.7,1418.7,309.7,2824,3692.6,302.3,75.3,29.6
0.323703,309.0,12.6,2809.1,161.2,3827.4,1605.9,309.7,2822.2,3680.4,302.6,75.4,29.4
0.325703,308.9,12.5,2801.9,148.3,3888.8,1727.3,309.8,2820.5,3668.3,302.8,75.5,29.4
0.327703,308.6,11.9,2791.9,148.6,3849.0,1688.0,309.9,2818.9,3656.1,303.1,75.6,29.7
0.329703,308.3,11.1,2778.1,155.9,3780.3,1515.5,309.9,2817.3,3644.1,303.3,75.7,30.1
0.331703,308.2,10.4,2763.2,157.7,3767.1,1349.5,309.9,2815.8,3632.2,303.5,75.8,30.6
0.333703,308.2,10.0,2751.9,150.2,3796.4,1214.7,309.8,2814.5,3620.6,303.6,75.9,31
0.335703,308.2,9.7,2746.8,139.7,3820.9,1092.2,309.8,2813.2,3609.2,303.8,76,31.4
0.337703,308.1,9.5,2745.7,131.7,3821.9,994.9,309.7,2812.1,3598.2,303.9,76,31.8
0.339703,308.1,9.4,2747.3,125.3,3811.5,932.4,309.7,2811,3587.6,304,76,32.3
0.341703,308.2,9.3,2750.9,119.2,3797.2,894.2,309.6,2810.1,3577.5,304,76.1,32.7
0.343703,308.2,9.3,2754.6,113.8,3775.9,848.1,309.4,2809.4,3567.9,304.1,76.1,33
0.345703,308.4,9.4,2755.6,111.4,3750.1,799.1,309.3,2808.7,3559,304.1,76.1,33.2
0.347703,308.7,9.7,2754.7,110.5,3727.2,776.8,309.2,2808.2,3550.7,304.1,76.1,33.1
0.349703,309.1,10.2,2754.5,109.3,3704.8,790.0,309,2807.9,3543.1,304.1,76.1,32.9
0.351703,309.4,10.6,2755.1,109.0,3677.5,824.5,308.8,2807.7,3536.3,304.1,76.2,32.7
0.353703,309.6,10.9,2754.2,111.9,3637.1,871.3,308.7,2807.7,3530.3,304,76.2,32.4
0.355703,309.6,11.0,2750.8,118.2,3581.9,935.0,308.5,2807.8,3525.3,303.9,76.2,32.2
0.357703,309.4,10.7,2748.0,124.8,3522.0,998.7,308.3,2808.1,3521.1,303.8,76.3,32.1
0.359703,309.1,10.5,2748.4,129.3,3492.9,1003.8,308.1,2808.5,3518,303.7,76.4,32
0.361703,308.9,10.5,2750.8,132.4,3520.7,925.0,307.9,2809.1,3515.9,303.6,76.4,32
0.363703,308.9,10.9,2752.7,137.8,3565.1,823.1,307.7,2809.9,3514.9,303.5,76.5,32
0.365703,308.9,11.3,2751.6,148.0,3592.5,765.8,307.5,2810.9,3515.1,303.3,76.5,32
0.367703,308.9,11.8,2747.7,163.7,3597.4,776.5,307.4,2812.1,3516.4,303.1,76.5,32.2
0.369703,308.8,12.2,2745.3,185.6,3579.0,865.0,307.2,2813.4,3518.9,303,76.6,32.4
0.371703,308.8,12.6,2752.0,208.4,3532.0,1008.3,307,2814.9,3522.6,302.8,76.6,32.7
0.373703,308.7,13.0,2770.3,228.8,3458.1,1126.8,306.8,2816.6,3527.5,302.6,76.6,32.9
0.375703,308.5,13.2,2791.7,243.3,3406.7,1139.4,306.7,2818.4,3533.8,302.3,76.6,33
0.377703,308.3,13.3,2808.5,253.1,3401.6,1091.3,306.6,2820.4,3541.3,302.1,76.7,33
0.379703,308.3,13.5,2823.8,266.9,3415.4,1037.7,306.4,2822.6,3550.1,301.9,76.7,32.9
0.381703,308.3,13.7,2844.4,292.4,3418.6,1016.8,306.3,2825,3560.2,301.6,76.6,32.7
0.383703,308.4,13.9,2880.1,332.2,3403.7,1039.8,306.2,2827.6,3571.6,301.4,76.6,32.5
0.385703,308.3,13.9,2926.0,365.4,3396.6,1086.2,306.2,2830.3,3584.3,301.1,76.6,32.4
0.387703,308.1,13.8,2960.6,374.0,3442.5,1090.9,306.1,2833.1,3598.3,300.9,76.5,32.2
0.389703,307.7,13.5,2965.3,365.6,3521.8,1002.3,306.1,2836.2,3613.5,300.6,76.5,32
0.391703,307.5,13.6,2953.0,357.7,3570.4,899.6,306.1,2839.4,3630,300.3,76.4,31.8
0.393703,307.2,14.1,2934.1,360.7,3580.0,839.2,306.1,2842.7,3647.8,300.1,76.3,31.6
0.395703,307.0,14.6,2915.0,371.9,3564.6,831.8,306.1,2846.2,3666.7,299.8,76.3,31.5
0.397703,306.7,15.0,2901.7,382.0,3539.3,881.1,306.2,2849.8,3686.8,299.5,76.2,31.2
0.399703,306.5,15.4,2900.9,379.1,3520.9,1000.2,306.3,2853.5,3708.1,299.3,76.1,31
0.401703,306.4,15.9,2907.9,355.9,3531.5,1159.6,306.4,2857.4,3730.4,299,76,30.7
0.403703,306.4,16.4,2914.2,324.4,3575.4,1277.6,306.5,2861.4,3753.8,298.8,75.9,30.5
0.405703,306.2,16.8,2918.8,301.5,3619.2,1300.3,306.6,2865.4,3778.1,298.5,75.8,30.5
0.407703,306.0,17.1,2921.2,282.3,3652.4,1287.8,306.8,2869.6,3803.4,298.3,75.7,30.6
0.409703,305.9,17.3,2919.2,261.5,3681.3,1286.6,307,2873.9,3829.5,298,75.6,30.8
0.411703,305.9,17.4,2913.7,239.6,3708.5,1298.7,307.2,2878.2,3856.5,297.8,75.5,31.1
0.413703,306.1,17.7,2905.8,218.2,3733.7,1321.7,307.5,2882.6,3884.1,297.6,75.3,31.4
0.415703,306.3,18.0,2896.9,201.2,3753.0,1356.1,307.7,2887.1,3912.5,297.4,75.2,31.5
0.417703,306.5,18.4,2886.8,189.6,3773.9,1397.7,308,2891.6,3941.4,297.2,75,31.5
0.419703,306.8,18.8,2874.8,185.4,3819.7,1430.7,308.3,2896.2,3970.9,297,74.9,31.4
0.421703,307.2,19.4,2861.0,188.1,3905.1,1450.6,308.6,2900.8,4000.7,296.9,74.7,31.2
0.423703,307.7,19.8,2848.9,196.6,4021.3,1462.6,309,2905.4,4030.9,296.7,74.6,31.1
0.425703,308.0,20.2,2849.7,208.8,4148.2,1449.9,309.3,2910,4061.4,296.6,74.4,31.2
0.427703,308.3,21.1,2867.9,221.0,4278.9,1353.4,309.7,2914.6,4092,296.5,74.3,31.5
0.429703,308.8,22.4,2896.7,232.2,4380.6,1145.3,310,2919.1,4122.7,296.4,74.1,32.1
0.431703,309.5,23.8,2918.9,245.9,4418.9,952.0,310.4,2923.7,4153.4,296.3,74,32.6
0.433703,310.2,25.1,2925.6,266.8,4422.1,826.1,310.8,2928.2,4184,296.3,73.9,33.1
0.435703,310.7,25.9,2920.2,290.7,4414.6,760.1,311.2,2932.6,4214.5,296.3,73.8,33.4
0.437703,310.9,26.3,2915.7,310.1,4409.3,724.0,311.6,2937,4244.6,296.3,73.7,33.5
0.439703,311.2,26.6,2916.9,321.9,4409.6,693.8,312,2941.3,4274.3,296.3,73.5,33.4
0.441703,311.4,26.5,2919.0,326.2,4416.2,667.9,312.4,2945.5,4303.6,296.4,73.4,33.3
0.443703,311.5,26.0,2918.3,330.1,4429.3,654.2,312.8,2949.7,4332.3,296.5,73.3,33.1
0.445703,311.8,25.6,2914.5,339.3,4445.8,659.0,313.2,2953.7,4360.4,296.6,73.2,32.8
0.447703,312.0,25.5,2907.0,350.6,4457.8,674.4,313.6,2957.6,4387.8,296.7,73.1,32.6
0.449703,312.5,25.6,2897.9,359.2,4459.5,691.5,314,2961.3,4414.3,296.9,73,32.2
0.451703,313.0,26.2,2899.4,366.4,4455.0,705.7,314.4,2964.9,4439.9,297.1,72.9,31.9
0.453703,313.6,27.4,2922.3,375.9,4459.7,719.0,314.7,2968.4,4464.5,297.3,72.8,31.6
0.455703,314.3,29.0,2962.7,377.9,4488.6,729.2,315.1,2971.7,4488.1,297.5,72.7,31.3
0.457703,314.8,30.2,3000.1,361.9,4537.1,739.1,315.4,2974.9,4510.5,297.8,72.6,31.1
0.459703,315.2,30.3,3018.9,332.7,4592.5,775.9,315.8,2977.8,4531.7,298.1,72.5,31.1
0.461703,315.3,29.3,3015.2,303.2,4641.6,877.8,316.1,2980.6,4551.6,298.4,72.4,31
0.463703,315.2,28.0,2998.7,272.7,4676.2,1081.6,316.4,2983.2,4570.2,298.8,72.3,30.9
0.465703,315.2,27.2,2983.5,237.8,4652.9,1300.4,316.6,2985.6,4587.4,299.2,72.2,30.7
0.467703,315.5,27.3,2978.8,204.3,4604.7,1371.7,316.9,2987.8,4603.1,299.5,72.1,30.4
0.469703,316.1,28.0,2983.8,179.9,4595.6,1323.1,317.1,2989.7,4617.3,299.9,72,30
0.471703,316.9,28.7,2994.9,170.4,4613.1,1245.2,317.3,2991.5,4630,300.4,71.9,29.6
0.473703,317.7,28.9,3011.4,173.6,4634.6,1252.5,317.5,2993,4641,300.8,71.8,29.1
0.475703,318.4,28.8,3031.2,180.7,4654.7,1351.8,317.6,2994.3,4650.4,301.2,71.7,28.4
0.477703,319.3,29.0,3046.6,181.6,4632.5,1419.7,317.8,2995.4,4658.1,301.6,71.6,27.3
0.479703,320.7,29.4,3047.7,178.6,4566.1,1436.3,317.9,2996.2,4664.2,302.1,71.5,25.9
0.481703,322.0,28.7,3026.8,181.2,4520.4,1498.9,317.9,2996.8,4668.5,302.5,71.4,24.4
0.483703,322.9,26.1,2987.5,188.0,4526.5,1669.4,318,2997.2,4671.1,302.9,71.3,23.1
0.485703,323.4,23.0,2951.0,193.8,4619.7,1929.1,318,2997.3,4672,303.3,71.2,22.5
