time,f1,b1,f2,b2,f3,b3,f1p,f2p,f3p,f0,intensity,harmonicity
0.025658,394.0,36.1,2848.9,103.7,3323.9,301.7,411.2,2867.6,3524,199.2,77.2,14.8
0.027658,395.4,34.7,2853.5,90.2,3372.3,269.8,410.8,2868.4,3531.3,199.1,77.1,14.6
0.029658,396.6,33.5,2858.4,86.9,3412.3,262.9,410,2869.8,3543.4,198.9,77,14.9
0.031658,397.6,33.3,2863.9,91.8,3450.3,285.6,409.1,2871.7,3560.1,198.7,76.9,15.4
0.033658,398.5,34.3,2870.3,100.4,3495.5,335.8,407.8,2874.1,3581,198.5,76.8,16
0.035658,399.2,36.3,2877.1,106.7,3554.8,404.9,406.5,2876.9,3605.8,198.2,76.7,16.6
0.037658,399.9,38.4,2882.9,107.2,3625.5,472.6,404.9,2880,3634.1,198,76.6,17.3
0.039658,400.7,40.6,2888.6,103.5,3704.8,523.7,403.3,2883.5,3665.4,197.8,76.6,18.2
0.041658,401.6,42.9,2894.6,98.8,3775.0,543.6,401.7,2887.1,3699.2,197.5,76.5,19.1
0.043658,402.5,45.1,2900.6,95.2,3825.5,538.9,400.1,2890.9,3734.8,197.3,76.5,19.8
0.045658,403.0,46.9,2906.2,92.2,3863.5,525.9,398.5,2894.8,3771.8,197,76.4,20.1
0.047658,403.3,47.8,2911.8,88.2,3903.9,514.8,397.2,2898.6,3809.3,196.7,76.4,20
0.049658,403.3,47.9,2918.7,82.3,3958.2,505.6,396,2902.3,3847,196.4,76.3,19.4
0.051658,403.7,48.3,2925.6,75.8,4016.9,496.5,395.1,2905.7,3884,196.1,76.3,18.6
0.053658,404.9,50.9,2929.9,70.2,4064.1,494.1,394.4,2908.9,3919.7,195.8,76.3,17.8
0.055658,406.8,55.8,2930.0,66.2,4090.2,505.1,394.2,2911.7,3953.7,195.5,76.2,17.2
0.057658,409.1,60.4,2927.2,63.5,4096.1,517.8,394.3,2914.1,3985.2,195.2,76.2,16.6
0.059658,411.2,62.6,2923.1,61.0,4090.5,514.2,394.8,2915.9,4013.8,194.9,76.2,16.1
0.061658,412.7,61.7,2918.4,57.4,4083.3,487.7,395.7,2917.2,4039.1,194.6,76.1,15.6
0.063658,413.6,59.1,2913.4,51.9,4079.4,451.3,397,2917.8,4060.6,194.2,76.1,15.2
0.065658,414.1,56.1,2908.4,45.9,4078.8,427.5,398.7,2917.8,4077.9,193.9,76.1,15.1
0.067658,414.4,53.7,2904.1,41.5,4081.0,426.1,400.8,2917.1,4090.8,193.6,76.2,15.3
0.069658,414.6,52.2,2900.2,38.9,4084.9,443.3,403.3,2915.6,4099.1,193.3,76.2,15.8
0.071658,414.5,52.0,2896.7,38.0,4089.2,471.0,406.1,2913.5,4102.7,192.9,76.2,16.4
0.073658,414.4,53.2,2893.2,38.5,4091.5,500.4,409.2,2910.6,4101.5,192.6,76.2,16.9
0.075658,414.6,55.7,2889.1,40.1,4085.8,526.5,412.5,2906.9,4095.5,192.3,76.2,17
0.077658,415.0,59.0,2884.5,42.9,4064.9,546.5,416,2902.6,4084.8,191.9,76.3,16.7
0.079658,415.6,62.5,2878.7,47.2,4026.8,552.9,419.6,2897.6,4069.6,191.6,76.3,16.1
0.081658,416.1,65.3,2872.0,51.7,3984.5,533.1,423.2,2891.9,4050.2,191.2,76.3,15.3
0.083658,416.6,67.5,2864.8,54.4,3953.0,492.2,426.7,2885.7,4026.8,190.9,76.3,14.6
0.085658,417.6,69.6,2858.5,55.0,3933.3,449.8,430.2,2878.9,3999.8,190.6,76.3,14.2
0.087658,419.1,72.0,2854.6,55.0,3916.5,422.7,433.5,2871.5,3969.6,190.2,76.4,14
0.089658,421.3,74.8,2853.4,55.9,3893.4,412.9,436.6,2863.7,3936.6,189.9,76.4,14
0.091658,424.1,77.4,2854.5,57.4,3863.6,416.4,439.4,2855.5,3901.2,189.5,76.4,14.1
0.093658,427.4,78.7,2855.6,59.0,3830.9,430.6,441.9,2846.8,3864,189.2,76.5,14.2
0.095658,431.1,78.7,2854.9,60.7,3797.7,456.6,444.1,2837.9,3825.5,188.8,76.5,14.3
0.097658,434.9,77.9,2851.5,62.9,3763.6,489.0,445.9,2828.6,3786.1,188.4,76.6,14.2
0.099658,438.2,76.7,2845.2,66.1,3721.3,514.9,447.3,2819,3746.3,188.1,76.6,14.2
0.101658,440.4,75.5,2835.6,69.6,3670.1,513.6,448.3,2809.2,3706.6,187.7,76.7,14.2
0.103658,441.6,74.3,2823.3,72.2,3616.6,477.6,448.9,2799.2,3667.5,187.4,76.8,14.1
0.105658,442.5,73.3,2809.9,72.0,3570.3,416.5,449.2,2789,3629.3,187,76.8,14
0.107658,443.3,72.6,2797.7,68.8,3535.9,351.0,449.3,2778.5,3592.5,186.6,76.9,13.8
0.109658,444.2,72.5,2786.8,64.0,3510.9,290.2,449.1,2767.9,3557.3,186.3,76.9,13.6
0.111658,444.9,73.8,2776.7,59.8,3494.7,240.2,448.7,2757,3524,185.9,77,13.4
0.113658,445.7,77.1,2765.7,57.1,3484.4,199.2,448.3,2745.8,3492.9,185.5,77,13.1
0.115658,446.8,82.7,2752.2,55.4,3477.1,168.8,447.9,2734.3,3464.2,185.1,77.1,12.7
0.117658,448.4,90.5,2737.1,54.4,3471.5,151.6,447.7,2722.5,3437.9,184.8,77.1,12.1
0.119658,450.8,101.2,2721.1,54.4,3465.7,143.8,447.7,2710.3,3414.2,184.4,77.1,11.4
0.121658,453.8,115.2,2705.7,56.5,3458.0,142.6,448.1,2697.6,3392.9,184,77.1,10.7
0.123658,457.5,134.3,2688.9,61.6,3448.3,145.8,449,2684.5,3374.2,183.7,77.1,10
0.125658,461.9,160.0,2668.1,68.5,3438.0,153.0,450.5,2670.7,3357.8,183.3,77.1,9.5
0.127658,466.6,189.5,2644.2,74.7,3428.4,164.9,452.7,2656.3,3343.7,183,77.1,9.3
0.129658,471.9,218.7,2617.7,79.2,3416.9,182.0,455.7,2641.2,3331.7,182.6,77.1,9.1
0.131658,477.8,239.3,2592.4,80.3,3402.4,199.7,459.7,2625.4,3321.5,182.3,77.2,9
0.133658,484.3,252.1,2570.9,79.4,3385.3,214.2,464.7,2608.7,3312.9,181.9,77.2,9
0.135658,490.9,263.0,2553.5,79.7,3367.1,224.2,470.9,2591.1,3305.6,181.6,77.3,9
0.137658,496.7,274.6,2538.7,83.0,3349.5,229.7,478.2,2572.6,3299.5,181.2,77.3,8.9
0.139658,501.8,289.1,2522.7,89.6,3330.9,231.3,486.7,2553.1,3294.1,180.9,77.3,8.9
0.141658,506.7,307.4,2503.4,97.9,3312.3,229.8,496.5,2532.6,3289.1,180.6,77.2,8.9
0.143658,511.8,335.7,2481.5,107.9,3297.7,233.3,507.6,2511.1,3284.4,180.3,77,9
0.145658,517.0,381.7,2459.6,121.7,3290.2,252.1,519.9,2488.5,3279.7,179.9,76.9,9.2
0.147658,523.2,439.6,2440.8,140.4,3286.2,287.6,533.4,2464.8,3274.6,179.6,76.7,9.7
0.149658,532.8,503.3,2425.1,167.9,3276.6,339.8,548.1,2440.1,3269,179.3,76.4,10.3
0.151658,547.0,566.7,2411.1,208.0,3253.8,398.1,563.9,2414.4,3262.6,179,76.2,11
0.153658,565.6,623.8,2392.3,258.9,3219.3,436.9,580.6,2387.8,3255.4,178.7,76.1,11.6
0.155658,588.9,656.5,2365.6,306.7,3185.9,436.5,598.3,2360.2,3247.1,178.4,76,11.8
0.157658,613.9,656.5,2337.9,338.2,3163.3,413.7,616.6,2331.8,3237.7,178.1,75.9,11.6
0.159658,639.0,633.3,2316.0,357.8,3147.2,395.1,635.5,2302.6,3227.1,177.8,75.9,11
0.161658,661.7,601.4,2303.4,374.7,3132.7,395.8,654.9,2272.7,3215.3,177.5,76,10.3
0.163658,681.5,572.5,2295.8,398.3,3117.9,412.0,674.4,2242.2,3202.3,177.1,76,9.8
0.165658,699.3,554.1,2284.3,431.8,3104.2,429.5,694.1,2211.3,3188.2,176.8,76,9.6
0.167658,716.5,550.9,2262.3,473.9,3093.9,439.3,713.5,2180,3173,176.5,76.1,10
0.169658,734.7,562.5,2226.6,526.2,3085.4,442.7,732.7,2148.6,3156.9,176.2,76.1,10.8
0.171658,752.8,588.6,2178.0,581.6,3076.9,443.8,751.3,2117,3140.1,175.9,76.1,11.7
0.173658,769.9,626.7,2117.1,626.5,3068.6,445.2,769.2,2085.5,3122.6,175.6,76.1,12.5
0.175658,784.3,658.6,2052.8,642.1,3062.5,445.7,786.2,2054.1,3104.7,175.2,76.1,13
0.177658,794.8,666.0,2000.0,630.1,3059.7,446.2,802.1,2023.1,3086.5,174.9,76.1,13
0.179658,804.3,657.4,1958.3,609.6,3058.9,452.2,816.9,1992.5,3068.4,174.6,76.1,12.7
0.181658,812.5,645.3,1926.0,591.0,3057.4,462.4,830.2,1962.4,3050.4,174.3,76.1,12.4
0.183658,817.4,629.1,1898.0,570.0,3052.0,463.4,842.1,1933.1,3032.8,173.9,76.1,12
0.185658,818.4,603.7,1870.2,536.2,3042.8,437.9,852.5,1904.6,3015.7,173.6,76.2,11.8
0.187658,817.2,574.6,1843.9,487.1,3035.0,388.6,861.2,1876.9,2999.4,173.3,76.2,11.9
0.189658,818.0,556.0,1819.5,434.2,3031.7,335.6,868.3,1850.3,2984.1,172.9,76.2,12.1
0.191658,823.5,557.8,1796.9,393.4,3028.4,298.2,873.6,1824.8,2969.8,172.6,76.2,12.4
0.193658,833.0,573.7,1775.1,362.4,3019.4,278.4,877.3,1800.4,2956.7,172.3,76.2,12.5
0.195658,847.1,599.4,1754.5,336.2,3005.1,272.5,879.3,1777.2,2944.8,172,76.2,12.3
0.197658,865.9,630.9,1735.6,313.5,2990.8,272.5,879.8,1755.3,2934.3,171.6,76.2,11.6
0.199658,888.8,660.7,1718.1,290.3,2982.2,270.9,878.7,1734.7,2925.2,171.3,76.1,10.4
0.201658,913.0,676.8,1703.3,265.2,2982.2,266.1,876.3,1715.4,2917.4,171,76.1,9
0.203658,936.3,675.9,1691.4,238.7,2985.7,260.4,872.5,1697.4,2911,170.7,76.1,8
0.205658,952.6,657.1,1682.5,212.5,2985.8,255.3,867.7,1680.8,2905.9,170.4,76.1,7.5
0.207658,956.6,623.9,1674.8,188.7,2979.0,253.2,862,1665.5,2902.1,170.1,76.1,7.8
0.209658,948.8,583.6,1665.0,166.7,2963.9,255.8,855.5,1651.5,2899.4,169.9,76.1,8.7
0.211658,931.7,544.6,1653.4,148.0,2944.3,261.1,848.4,1638.8,2897.7,169.6,76.1,9.9
0.213658,909.3,504.7,1641.3,132.7,2926.3,266.2,840.9,1627.3,2896.9,169.4,76.1,11
0.215658,886.3,466.0,1629.4,121.4,2911.8,270.3,833.2,1617,2896.9,169.1,76.1,11.7
0.217658,864.3,435.8,1619.6,114.7,2898.9,269.6,825.6,1607.9,2897.5,168.9,76,11.8
0.219658,839.3,407.4,1613.0,112.1,2883.1,257.5,818.2,1599.8,2898.6,168.7,76,11.7
0.221658,813.1,374.3,1610.1,113.0,2864.2,236.9,811.2,1592.9,2899.9,168.5,76,11.4
0.223658,789.0,336.3,1608.1,115.3,2845.1,219.5,804.7,1587,2901.4,168.3,75.9,11.2
0.225658,768.4,298.1,1603.3,117.8,2830.0,213.2,798.9,1582,2903,168.1,75.9,11.2
0.227658,752.1,267.9,1594.0,121.7,2823.6,217.2,794,1578.1,2904.4,167.9,75.8,11.6
0.229658,737.6,245.2,1580.4,127.1,2827.8,229.9,790.1,1575,2905.6,167.8,75.7,12.2
0.231658,723.8,227.2,1565.2,132.5,2841.6,257.2,787.2,1572.8,2906.5,167.6,75.6,12.9
0.233658,711.3,211.1,1550.3,136.7,2865.3,311.8,785.4,1571.5,2907.1,167.5,75.5,13.5
0.235658,700.4,196.1,1538.8,136.7,2903.0,390.2,784.8,1571.1,2907.3,167.4,75.3,13.9
