time,f1,b1,f2,b2,f3,b3,f1p,f2p,f3p,f0,intensity,harmonicity
0.025150,419.3,209.5,2857.8,139.0,4210.6,739.1,398.7,2896.1,3968.2,235.7,77.1,19.9
0.027150,413.7,197.9,2861.5,117.2,4019.6,720.8,399.2,2896.5,3964.9,235.3,77.3,18.8
0.029150,411.3,200.4,2865.5,101.7,3902.4,584.8,400,2897.1,3959.4,234.9,77.4,17.4
0.031150,409.8,203.0,2870.7,90.8,3857.9,471.8,401.1,2898.1,3952,234.4,77.6,16
0.033150,408.2,197.2,2877.4,84.7,3848.6,395.3,402.4,2899.2,3942.9,234,77.8,15
0.035150,406.0,183.2,2886.9,83.1,3854.3,334.0,404,2900.7,3932.4,233.5,77.9,14.6
0.037150,403.6,168.0,2899.0,86.4,3863.6,281.2,405.6,2902.5,3920.7,232.9,78,14.7
0.039150,401.1,155.4,2912.9,94.6,3872.0,236.7,407.4,2904.6,3908.2,232.4,78.1,15.1
0.041150,399.0,145.1,2925.5,104.8,3878.3,203.7,409.2,2907,3895.3,231.9,78.2,15.6
0.043150,397.6,136.0,2934.5,110.8,3880.8,181.8,410.9,2909.7,3882.4,231.3,78.3,16
0.045150,397.3,126.9,2943.2,109.7,3879.6,169.6,412.5,2912.8,3869.9,230.8,78.3,16.1
0.047150,398.2,117.9,2954.8,104.2,3877.3,165.3,414,2916.1,3858.1,230.2,78.4,16
0.049150,400.0,108.8,2967.0,98.0,3875.0,163.2,415.2,2919.8,3847.3,229.6,78.3,15.9
0.051150,402.3,101.4,2974.9,93.7,3869.5,158.9,416.2,2923.9,3837.9,229.1,78.3,15.8
0.053150,404.7,96.8,2976.1,93.2,3856.0,150.8,416.8,2928.2,3830.2,228.5,78.2,15.8
0.055150,407.2,93.9,2970.9,96.1,3835.8,140.3,417.2,2932.8,3824.3,227.9,78.1,15.9
0.057150,410.0,91.2,2962.3,99.0,3819.7,131.4,417.2,2937.6,3820.4,227.3,78,16.2
0.059150,413.5,88.5,2953.9,100.6,3814.8,127.9,416.8,2942.6,3818.6,226.8,77.8,16.5
0.061150,417.4,85.3,2947.6,102.4,3821.8,131.5,416.2,2947.8,3818.9,226.2,77.7,16.8
0.063150,421.0,80.9,2942.2,105.6,3836.8,140.6,415.2,2953.2,3821.3,225.7,77.5,17
0.065150,424.1,74.7,2935.8,110.3,3855.5,153.4,414,2958.6,3825.5,225.1,77.4,16.9
0.067150,426.4,68.6,2929.7,114.7,3870.4,167.3,412.6,2964,3831.6,224.6,77.4,16.5
0.069150,427.6,64.5,2928.9,116.5,3876.3,183.2,411,2969.3,3839.1,224,77.4,15.9
0.071150,426.9,63.5,2937.2,113.0,3872.5,201.3,409.3,2974.5,3847.9,223.5,77.4,15.4
0.073150,423.9,65.2,2950.4,103.5,3865.1,216.1,407.6,2979.6,3857.6,223,77.4,15
0.075150,418.6,68.7,2962.3,91.1,3861.6,221.2,405.9,2984.5,3867.8,222.5,77.4,14.8
0.077150,412.4,73.0,2970.4,81.2,3865.1,218.7,404.4,2989,3878.3,222.1,77.5,14.9
0.079150,406.3,77.0,2977.7,75.0,3873.7,216.6,403.1,2993.2,3888.5,221.6,77.5,15.1
0.081150,401.3,80.1,2986.2,71.8,3882.9,219.4,402,2997.1,3898.3,221.1,77.4,15.4
0.083150,398.0,81.5,2995.8,70.5,3889.2,227.3,401.3,3000.5,3907.1,220.7,77.3,15.7
0.085150,396.7,80.7,3004.5,70.4,3890.6,237.8,401,3003.5,3914.7,220.3,77.1,15.9
0.087150,396.9,78.2,3009.8,69.9,3887.6,246.5,401.2,3006.1,3920.8,219.9,76.9,16.2
0.089150,397.7,75.9,3012.5,67.3,3884.2,254.6,401.8,3008.1,3925.2,219.5,76.6,16.5
0.091150,398.4,75.6,3014.5,62.6,3884.5,268.6,402.9,3009.7,3927.7,219.1,76.4,16.8
0.093150,398.8,78.3,3017.0,57.8,3889.9,290.9,404.5,3010.9,3928.2,218.7,76.1,17
0.095150,398.5,84.1,3020.2,53.9,3900.6,315.3,406.6,3011.6,3926.7,218.4,75.8,17.1
0.097150,398.0,91.2,3023.4,50.8,3914.6,330.9,409.2,3012,3923.1,218.1,75.5,17
0.099150,398.4,98.8,3025.3,47.7,3927.6,337.7,412.2,3012,3917.7,217.7,75.2,16.9
0.101150,401.2,106.7,3024.9,45.0,3932.9,340.1,415.6,3011.7,3910.4,217.4,74.8,16.7
0.103150,407.6,114.5,3022.4,43.4,3924.2,337.6,419.3,3011.2,3901.7,217.2,74.4,16.5
0.105150,417.7,121.7,3018.5,43.1,3902.0,324.5,423.2,3010.4,3891.7,216.9,74,16.4
0.107150,429.3,127.4,3014.5,43.2,3879.8,303.5,427.3,3009.6,3880.7,216.6,73.5,16.2
0.109150,440.6,132.8,3011.3,42.8,3867.1,284.2,431.4,3008.8,3869.2,216.4,73.1,16
0.111150,449.8,138.0,3009.4,42.1,3863.1,272.9,435.5,3008,3857.5,216.2,72.7,15.9
0.113150,456.1,141.0,3008.6,41.7,3861.8,269.8,439.4,3007.3,3845.9,216,72.5,15.9
0.115150,459.5,139.7,3008.4,41.7,3858.4,273.1,443.1,3006.8,3834.9,215.8,72.3,16
0.117150,459.3,135.6,3008.5,42.2,3852.2,279.9,446.5,3006.4,3824.9,215.6,72.3,16.3
0.119150,456.3,131.5,3008.4,43.2,3844.5,288.0,449.4,3006.3,3816.1,215.4,72.3,16.7
0.121150,451.9,129.7,3008.4,44.4,3836.7,294.6,451.9,3006.6,3808.9,215.3,72.4,17.1
0.123150,447.8,131.0,3008.8,45.7,3829.9,297.8,453.9,3007.1,3803.5,215.1,72.4,17.6
0.125150,445.4,135.0,3009.6,46.8,3824.8,298.1,455.2,3007.9,3800.2,215,72.4,18.1
0.127150,445.5,139.5,3010.5,48.0,3820.9,298.8,455.9,3009.1,3799,214.9,72.4,18.9
0.129150,447.8,142.6,3011.4,50.4,3816.1,302.2,456.1,3010.6,3800,214.8,72.3,19.7
0.131150,451.3,144.1,3012.6,54.6,3809.5,308.0,455.5,3012.3,3803.2,214.6,72.2,20.4
0.133150,454.3,144.7,3014.3,60.5,3803.2,314.8,454.4,3014.2,3808.5,214.6,72.1,20.8
0.135150,455.3,145.3,3016.1,66.1,3800.7,322.4,452.8,3016.3,3815.7,214.5,72.1,20.8
0.137150,453.5,145.9,3017.6,68.9,3804.1,331.1,450.6,3018.5,3824.5,214.4,72.1,20.3
0.139150,449.4,146.4,3018.8,68.2,3813.7,342.4,448.1,3020.8,3834.7,214.3,72.1,19.4
0.141150,444.3,146.0,3020.1,64.9,3828.1,357.3,445.2,3022.9,3845.8,214.2,72.2,18.6
0.143150,439.9,144.1,3021.2,60.9,3844.3,373.8,442.1,3024.9,3857.5,214.2,72.3,18
0.145150,437.0,140.7,3021.5,58.1,3858.3,387.6,438.9,3026.6,3869.2,214.1,72.5,17.8
0.147150,435.4,137.0,3020.8,57.2,3866.4,394.0,435.6,3028,3880.5,214.1,72.6,17.9
0.149150,433.9,133.9,3019.3,57.8,3870.3,395.4,432.5,3029,3891,214,72.7,18.3
0.151150,432.0,132.5,3017.8,59.0,3872.5,397.1,429.6,3029.4,3900.1,214,72.8,18.7
0.153150,429.7,133.4,3016.6,59.9,3875.0,402.6,427.1,3029.2,3907.3,213.9,72.8,19.2
0.155150,427.2,136.8,3015.5,60.3,3878.3,411.7,424.9,3028.4,3912.3,213.9,72.8,19.7
0.157150,425.5,142.2,3014.5,60.0,3881.8,421.3,423.4,3026.8,3914.7,213.9,72.7,20.4
0.159150,424.7,148.0,3013.6,59.0,3884.6,430.5,422.4,3024.5,3914.1,213.8,72.6,21.1
0.161150,424.7,152.8,3012.5,57.5,3885.8,440.1,422.1,3021.3,3910.3,213.8,72.6,21.8
0.163150,425.3,156.6,3010.8,55.5,3885.3,452.6,422.5,3017.4,3903.1,213.8,72.5,22.3
0.165150,425.9,161.0,3008.1,52.9,3883.9,471.2,423.7,3012.7,3892.6,213.7,72.4,22.5
0.167150,426.3,166.6,3005.0,50.0,3881.9,494.8,425.6,3007.3,3878.6,213.7,72.3,22.4
0.169150,426.7,172.9,3002.3,47.1,3877.6,518.8,428.2,3001.2,3861.3,213.7,72.2,22.2
0.171150,428.1,178.0,3000.2,44.3,3869.0,537.3,431.5,2994.5,3840.9,213.7,72.2,21.8
0.173150,431.5,181.3,2998.2,41.9,3855.3,549.3,435.5,2987.2,3817.8,213.6,72.1,21.5
0.175150,436.9,182.9,2995.4,40.1,3837.4,557.8,440,2979.5,3792.2,213.6,72.1,21.4
0.177150,443.0,183.6,2991.7,38.9,3818.1,564.4,445,2971.5,3764.7,213.6,72.1,21.4
0.179150,448.9,184.6,2987.4,38.4,3797.0,569.8,450.4,2963.2,3735.7,213.6,72.1,21.5
0.181150,454.3,186.7,2982.9,38.9,3772.5,575.2,456,2955,3705.9,213.6,72,21.5
0.183150,459.3,189.9,2978.3,40.5,3743.5,582.8,461.7,2946.8,3675.8,213.6,72,21.3
0.185150,464.6,193.5,2973.2,43.6,3708.4,593.8,467.4,2938.8,3646,213.6,72,20.9
0.187150,469.8,196.3,2966.9,48.4,3669.0,605.1,473,2931.3,3617.3,213.6,71.9,20.3
0.189150,475.0,197.8,2958.1,55.6,3622.6,611.5,478.3,2924.2,3590.2,213.6,71.9,19.5
0.191150,480.0,197.9,2945.0,66.1,3568.9,606.3,483.1,2917.8,3565.3,213.6,71.8,18.7
0.193150,484.8,196.2,2926.4,79.5,3513.8,585.9,487.5,2912.1,3543.3,213.6,71.7,18
0.195150,489.7,192.5,2902.3,93.5,3467.6,556.6,491.2,2907.3,3524.5,213.6,71.6,17.5
0.197150,494.6,187.9,2878.0,104.1,3440.8,535.4,494.2,2903.5,3509.4,213.6,71.5,17.2
0.199150,499.7,183.6,2857.0,112.2,3430.3,530.4,496.3,2900.7,3498.4,213.6,71.4,17
0.201150,504.8,181.0,2841.2,121.6,3432.3,541.5,497.7,2899,3491.7,213.6,71.3,16.9
0.203150,509.4,179.8,2830.1,136.6,3444.5,565.6,498.1,2898.5,3489.4,213.6,71.2,16.8
