time,f1,b1,f2,b2,f3,b3,f1p,f2p,f3p,f0,intensity,harmonicity
0.025995,332.9,22.9,2176.9,229.5,3122.2,413.2,347.8,2347.7,3111.7,173.6,68.1,8.8
0.027995,337.4,19.4,2200.0,190.6,3115.6,413.7,347.9,2348.3,3112.3,173.6,68.8,9
0.029995,341.4,17.3,2217.7,158.3,3111.7,382.4,347.9,2349.3,3113.2,173.7,69.4,10.8
0.031995,344.9,16.0,2228.1,144.6,3108.4,348.6,348.1,2350.7,3114.4,173.7,70,13.2
0.033995,348.0,14.7,2232.6,156.3,3100.0,338.1,348.2,2352.5,3116,173.7,70.6,15.7
0.035995,350.6,13.8,2234.8,194.3,3093.0,308.3,348.4,2354.7,3117.9,173.8,71.1,17.7
0.037995,352.7,13.8,2243.9,245.0,3094.2,252.3,348.6,2357.2,3120.2,173.8,71.6,18.8
0.039995,354.5,14.5,2269.1,284.8,3097.8,212.9,348.8,2360.1,3122.8,173.8,72,19.1
0.041995,356.0,15.1,2303.9,283.6,3099.0,203.1,349.1,2363.4,3125.7,173.9,72.4,19.1
0.043995,357.2,15.9,2338.8,250.6,3096.3,216.1,349.4,2367.1,3128.9,173.9,72.8,18.8
0.045995,358.2,17.1,2367.9,216.0,3093.0,243.4,349.7,2371.1,3132.4,173.9,73.1,18.6
0.047995,358.9,19.0,2393.5,192.2,3101.0,261.5,350.1,2375.4,3136.2,173.9,73.4,18.6
0.049995,359.1,21.3,2420.5,172.2,3127.8,244.5,350.4,2380,3140.3,173.9,73.7,18.6
0.051995,359.3,23.7,2444.1,154.3,3155.3,204.3,350.9,2384.9,3144.6,173.9,73.9,18.6
0.053995,359.6,25.5,2460.6,138.4,3172.5,171.1,351.3,2390.2,3149.2,173.9,74.1,18.6
0.055995,359.7,26.2,2467.2,126.9,3178.8,160.6,351.8,2395.7,3154,173.9,74.4,18.7
0.057995,359.4,25.9,2467.7,119.3,3177.2,173.7,352.3,2401.5,3159,173.9,74.5,18.8
0.059995,359.2,25.3,2466.6,112.6,3171.3,201.9,352.8,2407.5,3164.2,173.9,74.7,18.9
0.061995,359.0,25.2,2466.6,105.3,3167.5,219.9,353.3,2413.7,3169.6,173.9,74.9,19
0.063995,358.7,25.4,2467.6,98.5,3168.1,221.7,353.9,2420.1,3175.2,173.9,75,19.2
0.065995,358.4,25.5,2468.2,95.3,3170.7,221.7,354.5,2426.8,3180.8,173.8,75.2,19.5
0.067995,357.7,25.4,2468.2,95.5,3175.8,223.7,355.1,2433.6,3186.6,173.8,75.3,19.8
0.069995,357.0,25.4,2469.3,98.2,3187.0,220.2,355.7,2440.5,3192.6,173.8,75.4,20.4
0.071995,356.4,25.5,2473.5,104.1,3201.8,207.1,356.3,2447.6,3198.5,173.8,75.5,21
0.073995,355.8,25.9,2482.1,115.2,3215.3,189.6,357,2454.8,3204.6,173.8,75.6,21.6
0.075995,355.3,26.9,2494.8,127.6,3224.6,174.1,357.7,2462.1,3210.7,173.8,75.6,22.2
0.077995,354.9,28.4,2509.8,134.1,3231.1,162.6,358.3,2469.5,3216.8,173.8,75.6,22.7
0.079995,354.5,29.5,2525.5,136.5,3236.9,161.6,359,2476.9,3222.9,173.9,75.6,23.3
0.081995,354.2,29.7,2540.6,136.5,3243.2,170.5,359.8,2484.3,3229,173.9,75.6,23.8
0.083995,354.3,29.4,2556.8,134.3,3251.4,182.2,360.5,2491.8,3235.1,173.9,75.6,24.3
0.085995,354.6,29.3,2572.8,130.2,3260.6,188.8,361.2,2499.3,3241.1,174,75.5,24.5
0.087995,355.0,29.6,2587.0,123.6,3268.9,187.8,361.9,2506.7,3247.1,174.1,75.5,24.5
0.089995,355.4,30.5,2598.7,112.8,3276.3,179.4,362.7,2514.1,3252.9,174.2,75.4,24.2
0.091995,355.9,31.6,2605.9,100.8,3281.3,167.9,363.4,2521.4,3258.7,174.3,75.4,23.7
0.093995,356.7,32.8,2609.5,90.4,3283.9,157.7,364.1,2528.6,3264.3,174.4,75.3,23.1
0.095995,357.7,34.0,2610.7,83.8,3284.8,151.8,364.9,2535.8,3269.8,174.5,75.3,22.4
0.097995,358.8,35.2,2611.3,80.5,3286.2,149.1,365.6,2542.8,3275.2,174.7,75.2,21.4
0.099995,360.1,36.6,2611.2,79.2,3290.6,145.6,366.3,2549.7,3280.3,174.9,75.1,20.1
0.101995,361.5,38.1,2609.7,79.8,3297.8,139.2,367.1,2556.5,3285.3,175.1,75,18.5
0.103995,362.7,39.4,2606.8,81.3,3305.6,131.0,367.8,2563.1,3290.1,175.3,75,17
0.105995,363.6,40.1,2604.8,80.9,3311.4,124.7,368.5,2569.5,3294.7,175.5,74.9,16
0.107995,364.4,40.3,2605.3,77.6,3316.4,123.0,369.1,2575.7,3299.1,175.8,74.8,15.5
0.109995,365.3,40.1,2607.7,73.0,3322.3,125.4,369.8,2581.7,3303.2,176,74.7,15.6
0.111995,366.3,39.2,2610.0,70.1,3327.3,129.5,370.5,2587.5,3307.2,176.3,74.6,16.1
0.113995,367.2,37.4,2611.0,70.5,3328.9,133.3,371.1,2593.1,3310.8,176.6,74.6,16.8
0.115995,367.8,34.9,2610.4,75.1,3327.0,135.4,371.7,2598.5,3314.3,176.9,74.5,17.4
0.117995,368.1,32.7,2608.7,81.5,3325.9,135.2,372.2,2603.6,3317.4,177.2,74.4,17.8
0.119995,368.6,31.5,2606.9,87.9,3328.3,134.0,372.8,2608.4,3320.4,177.5,74.3,18.1
0.121995,369.3,31.8,2605.2,94.5,3332.2,134.4,373.3,2613,3323,177.9,74.3,18.4
0.123995,370.5,33.7,2601.4,105.4,3332.9,140.1,373.8,2617.3,3325.4,178.3,74.2,18.7
0.125995,371.9,35.6,2593.3,127.3,3327.1,155.2,374.2,2621.4,3327.5,178.6,74.2,19
0.127995,372.9,36.4,2583.7,165.1,3318.7,176.1,374.6,2625.2,3329.4,179,74.2,19.5
0.129995,373.8,37.6,2580.5,220.1,3312.6,197.1,375,2628.7,3331,179.4,74.2,20.1
0.131995,375.0,40.4,2593.0,267.7,3310.1,217.7,375.4,2632,3332.4,179.8,74.2,20.8
0.133995,376.7,44.8,2616.0,271.2,3314.3,240.7,375.6,2634.9,3333.5,180.3,74.2,21.4
0.135995,378.4,49.1,2629.0,233.7,3326.5,261.3,375.9,2637.6,3334.3,180.7,74.3,22
0.137995,379.2,51.4,2630.9,199.5,3339.1,282.1,376.1,2640,3334.9,181.2,74.3,22.5
0.139995,378.8,51.4,2629.3,183.1,3342.7,301.2,376.2,2642.1,3335.3,181.6,74.4,23.1
0.141995,377.7,50.0,2624.6,179.8,3331.1,294.0,376.3,2644,3335.4,182.1,74.4,23.6
0.143995,376.7,48.2,2616.6,177.5,3313.4,257.5,376.4,2645.6,3335.3,182.6,74.5,24
0.145995,375.9,46.2,2611.2,174.2,3305.5,225.6,376.4,2647,3335,183.1,74.5,24.3
0.147995,375.3,43.9,2611.5,171.8,3306.5,213.8,376.3,2648,3334.5,183.6,74.5,24.3
0.149995,374.9,41.9,2615.2,167.8,3310.2,214.3,376.2,2648.9,3333.8,184.2,74.6,24.1
0.151995,374.6,41.2,2618.4,161.1,3313.1,217.5,376.1,2649.5,3332.9,184.7,74.6,23.7
0.153995,374.7,41.8,2619.8,153.5,3314.9,218.0,375.9,2649.8,3331.9,185.3,74.6,23.2
0.155995,375.3,43.6,2619.8,149.0,3316.1,217.3,375.6,2650,3330.7,185.9,74.6,22.8
0.157995,376.3,45.8,2620.0,147.0,3317.8,217.7,375.3,2649.9,3329.4,186.5,74.6,22.4
0.159995,377.5,48.0,2620.8,141.7,3321.2,216.4,374.9,2649.6,3327.9,187.1,74.6,22.1
0.161995,378.8,49.7,2622.1,129.8,3326.0,209.0,374.4,2649.2,3326.3,187.7,74.5,21.9
0.163995,379.8,50.6,2624.2,115.9,3330.3,196.7,373.9,2648.5,3324.7,188.3,74.5,21.5
0.165995,380.4,50.2,2627.0,106.4,3332.4,185.7,373.4,2647.7,3322.9,188.9,74.5,21.1
0.167995,380.7,48.9,2629.0,106.1,3331.4,184.5,372.8,2646.7,3321.1,189.6,74.4,20.4
0.169995,380.8,47.5,2629.1,116.9,3326.9,198.2,372.1,2645.6,3319.3,190.2,74.3,19.5
0.171995,381.3,46.8,2627.8,137.0,3319.4,226.6,371.4,2644.4,3317.4,190.9,74.1,18.4
0.173995,381.9,47.2,2626.7,161.3,3309.4,260.7,370.6,2643,3315.5,191.5,73.9,17.3
0.175995,382.8,48.8,2626.2,178.6,3299.1,276.1,369.8,2641.5,3313.6,192.2,73.7,16.5
0.177995,383.7,51.7,2622.8,183.5,3289.8,261.6,368.9,2639.9,3311.7,192.8,73.5,15.9
0.179995,384.8,56.1,2611.8,173.0,3281.1,223.4,368,2638.3,3309.8,193.4,73.4,15.4
0.181995,385.9,61.2,2599.3,145.5,3277.2,180.6,367,2636.6,3308,194,73.3,15
0.183995,385.8,64.8,2597.4,117.6,3280.6,149.2,366,2634.8,3306.2,194.7,73.3,14.8
0.185995,383.6,65.1,2605.2,100.4,3290.9,126.7,365,2633,3304.5,195.3,73.5,14.9
0.187995,380.0,62.3,2615.2,95.9,3303.5,110.3,363.9,2631.2,3302.9,195.8,73.8,15.4
0.189995,376.0,58.2,2622.7,100.6,3314.4,96.5,362.8,2629.3,3301.4,196.4,74.1,16.6
0.191995,372.3,54.5,2623.8,112.8,3320.3,86.8,361.6,2627.4,3300,197,74.6,18
0.193995,368.9,51.4,2615.9,127.7,3320.7,82.8,360.4,2625.6,3298.7,197.5,75,19.5
0.195995,365.1,49.6,2600.5,134.8,3317.1,84.1,359.2,2623.8,3297.5,198,75.4,20.5
0.197995,361.3,50.6,2586.6,126.2,3313.4,87.8,358,2622,3296.5,198.5,75.7,20.7
0.199995,356.9,56.3,2578.0,107.9,3312.3,90.3,356.7,2620.2,3295.6,199,76.1,20.2
0.201995,352.0,67.3,2573.8,91.7,3313.5,90.1,355.4,2618.5,3294.9,199.4,76.3,19.4
0.203995,345.4,84.1,2572.4,84.0,3312.4,91.5,354.1,2616.9,3294.4,199.8,76.6,18.4
0.205995,336.5,103.5,2574.5,88.6,3304.0,101.1,352.8,2615.4,3294,200.2,76.8,17.6
0.207995,325.3,120.7,2579.4,101.8,3290.0,122.1,351.5,2613.9,3293.9,200.6,77.1,17.2
0.209995,311.9,133.1,2585.4,113.0,3276.9,156.7,350.2,2612.5,3293.9,201,77.3,17
0.211995,298.8,137.6,2590.0,109.1,3274.9,199.4,348.9,2611.2,3294.1,201.3,77.6,16.9
0.213995,289.9,135.5,2593.1,95.3,3282.6,238.8,347.5,2610,3294.5,201.6,77.8,17
0.215995,288.0,129.9,2597.0,82.1,3289.1,264.6,346.2,2608.9,3295.1,201.9,78.1,17.1
0.217995,294.0,124.4,2602.9,74.6,3287.9,263.5,345,2607.9,3295.9,202.2,78.4,17.2
0.219995,306.4,119.9,2610.8,70.3,3284.4,236.6,343.7,2607.1,3296.9,202.5,78.7,17.4
0.221995,321.9,115.7,2619.0,67.0,3285.3,198.6,342.4,2606.3,3298,202.7,79.1,17.6
0.223995,337.3,110.8,2625.2,62.5,3290.9,163.3,341.2,2605.7,3299.4,202.9,79.4,17.9
0.225995,351.6,104.3,2628.6,56.1,3300.4,135.2,340,2605.2,3301,203.1,79.7,18.5
0.227995,362.0,97.5,2629.8,49.7,3310.4,120.8,338.9,2604.9,3302.8,203.3,79.9,19.3
0.229995,368.6,91.8,2631.5,44.5,3318.3,121.4,337.8,2604.6,3304.7,203.5,80.2,20.6
0.231995,371.3,88.5,2635.4,40.9,3320.6,139.8,336.7,2604.5,3306.8,203.7,80.4,22.2
0.233995,371.0,87.4,2640.8,38.2,3316.9,175.5,335.7,2604.5,3309.2,203.8,80.5,23.7
0.235995,368.7,87.9,2645.9,36.0,3309.1,226.0,334.7,2604.7,3311.6,203.9,80.6,24.9
0.237995,366.1,89.5,2649.1,34.4,3300.1,277.5,333.8,2604.9,3314.3,204.1,80.7,25.6
0.239995,363.4,92.1,2651.0,33.4,3290.2,326.6,332.9,2605.3,3317,204.2,80.8,25.9
0.241995,360.7,95.7,2652.2,33.1,3280.5,362.8,332.1,2605.8,3320,204.3,80.8,26
0.243995,358.0,100.2,2652.5,33.1,3273.3,370.1,331.4,2606.4,3323,204.4,80.9,25.8
0.245995,355.2,106.2,2651.9,32.8,3271.7,341.0,330.7,2607.1,3326.2,204.4,80.9,25.7
0.247995,351.9,113.0,2650.7,32.1,3280.4,293.7,330.1,2607.9,3329.5,204.5,80.9,25.5
0.249995,346.0,119.6,2649.8,31.0,3298.1,250.8,329.5,2608.8,3332.8,204.6,80.9,25
0.251995,337.7,123.4,2650.4,30.3,3315.7,233.1,329.1,2609.8,3336.3,204.7,80.9,24.4
0.253995,328.8,122.2,2652.6,30.1,3330.8,247.9,328.7,2610.8,3339.8,204.7,81,23.9
0.255995,320.5,116.4,2655.9,30.2,3349.2,294.7,328.4,2612,3343.4,204.8,81,23.7
0.257995,315.3,109.9,2658.8,30.1,3371.9,353.0,328.2,2613.2,3347.1,204.9,81.1,24
0.259995,312.9,104.8,2661.0,29.8,3396.8,393.9,328.1,2614.4,3350.7,204.9,81.1,24.7
0.261995,312.8,101.8,2662.6,29.5,3417.0,401.2,328,2615.7,3354.4,205,81.1,25.8
0.263995,313.9,101.0,2663.3,29.1,3431.1,393.2,328.1,2617,3358.1,205,81.2,26.9
0.265995,315.6,101.9,2663.3,28.3,3440.3,382.3,328.2,2618.3,3361.8,205.1,81.2,28
0.267995,316.8,102.8,2662.8,27.8,3442.3,371.0,328.4,2619.7,3365.5,205.2,81.3,28.8
0.269995,316.3,101.6,2662.4,28.2,3437.0,360.0,328.7,2621,3369.1,205.3,81.3,29.7
0.271995,314.5,98.0,2662.8,29.2,3431.6,355.1,329.1,2622.4,3372.6,205.3,81.3,30.6
0.273995,312.5,93.8,2664.5,30.5,3432.8,359.8,329.5,2623.7,3376.1,205.4,81.3,31.3
0.275995,311.6,90.9,2667.2,31.8,3440.2,372.6,330.1,2625,3379.5,205.5,81.3,31.9
0.277995,311.9,89.5,2670.5,33.6,3447.6,386.6,330.7,2626.3,3382.8,205.6,81.4,32.1
0.279995,313.4,88.8,2674.7,36.6,3452.3,397.6,331.5,2627.5,3386,205.7,81.4,32.2
0.281995,315.4,88.6,2679.4,40.2,3458.8,407.5,332.3,2628.6,3389.1,205.8,81.4,32
0.283995,317.5,88.4,2683.0,43.5,3472.8,428.3,333.2,2629.7,3392.1,205.9,81.4,31.7
0.285995,319.2,87.2,2683.2,46.7,3488.5,467.6,334.1,2630.7,3394.9,206,81.5,31.4
0.287995,320.2,84.3,2680.3,51.6,3489.3,513.4,335.2,2631.6,3397.5,206.1,81.5,31.1
0.289995,321.3,80.5,2674.7,60.6,3460.3,538.8,336.3,2632.4,3400,206.2,81.6,30.7
0.291995,323.3,77.4,2665.4,72.2,3411.5,521.8,337.5,2633.2,3402.2,206.3,81.6,30.3
0.293995,326.3,75.6,2649.6,83.6,3361.6,476.7,338.7,2633.7,3404.3,206.5,81.6,29.8
0.295995,330.2,74.7,2627.8,90.3,3324.4,430.0,340,2634.2,3406.2,206.6,81.7,29.4
0.297995,334.6,74.7,2605.1,91.2,3301.0,395.5,341.4,2634.5,3407.9,206.7,81.8,29
0.299995,339.6,75.6,2583.8,88.9,3287.6,372.4,342.8,2634.7,3409.4,206.8,81.8,28.7
0.301995,344.6,77.5,2567.4,86.7,3285.9,358.8,344.3,2634.7,3410.6,207,81.9,28.3
0.303995,349.2,79.7,2557.0,85.1,3298.5,344.0,345.8,2634.6,3411.6,207.1,81.9,28
0.305995,353.8,81.6,2551.7,82.8,3324.1,308.8,347.4,2634.3,3412.4,207.2,81.9,27.7
0.307995,357.9,81.8,2551.6,79.9,3346.4,257.7,349,2633.8,3412.9,207.4,82,27.4
0.309995,362.3,80.4,2555.6,77.4,3356.2,211.3,350.7,2633.2,3413.2,207.5,82,27
0.311995,367.2,79.1,2560.9,75.7,3354.8,182.2,352.4,2632.4,3413.2,207.6,82,26.6
0.313995,372.1,78.4,2564.8,75.2,3348.6,167.3,354.1,2631.3,3413,207.7,82,26.3
0.315995,376.0,77.5,2565.9,76.2,3341.0,161.7,355.8,2630.1,3412.5,207.9,82.1,26.1
0.317995,378.0,76.0,2563.6,77.0,3333.5,163.6,357.6,2628.7,3411.8,208,82.1,26
0.319995,378.7,73.8,2560.7,76.4,3328.6,172.4,359.3,2627.1,3410.8,208.1,82.1,26
0.321995,378.8,70.3,2561.6,75.3,3333.0,189.7,361.1,2625.3,3409.6,208.2,82.1,26.1
0.323995,378.9,65.9,2565.8,73.8,3347.2,213.8,362.8,2623.3,3408.1,208.3,82.1,26.3
0.325995,379.9,61.6,2569.7,71.2,3366.2,240.2,364.6,2621.1,3406.3,208.3,82,26.5
0.327995,381.4,58.6,2570.4,67.6,3382.3,258.3,366.3,2618.7,3404.3,208.4,82,26.6
0.329995,383.1,56.9,2567.8,64.1,3394.6,264.3,368,2616.1,3402,208.5,82,26.9
0.331995,384.8,56.1,2562.4,61.0,3403.6,261.0,369.8,2613.3,3399.5,208.5,81.9,27.2
0.333995,386.7,56.2,2555.2,58.2,3411.2,258.4,371.4,2610.3,3396.8,208.5,81.9,27.5
0.335995,389.0,56.6,2546.8,55.5,3419.2,266.1,373.1,2607,3393.8,208.6,81.8,27.8
0.337995,391.1,56.8,2539.8,54.3,3428.2,291.9,374.7,2603.6,3390.6,208.6,81.7,28.1
0.339995,392.3,56.5,2536.1,55.6,3442.2,343.5,376.3,2600,3387.2,208.6,81.6,28.4
0.341995,392.1,55.8,2536.3,58.9,3463.1,413.5,377.8,2596.2,3383.5,208.6,81.5,28.7
0.343995,391.2,55.2,2538.6,62.6,3482.0,468.5,379.3,2592.2,3379.7,208.5,81.4,29.1
0.345995,390.0,54.8,2540.1,67.4,3481.7,474.5,380.8,2588.1,3375.6,208.5,81.3,29.4
0.347995,389.0,55.0,2539.3,74.0,3458.3,430.7,382.1,2583.7,3371.4,208.4,81.1,29.7
0.349995,388.5,55.7,2537.4,81.6,3423.8,367.9,383.5,2579.2,3367,208.3,81,30.1
0.351995,388.4,57.0,2536.7,87.5,3390.5,313.5,384.7,2574.5,3362.4,208.2,80.9,30.5
0.353995,388.6,58.8,2537.9,89.8,3364.6,275.8,385.9,2569.7,3357.6,208.1,80.7,30.8
0.355995,388.7,61.2,2539.0,90.1,3346.6,249.6,387.1,2564.7,3352.7,208,80.6,30.8
0.357995,388.7,63.7,2537.6,90.7,3336.1,229.0,388.1,2559.6,3347.7,207.9,80.5,30.5
0.359995,388.4,66.3,2533.7,92.8,3327.2,204.5,389.1,2554.3,3342.5,207.7,80.3,29.8
0.361995,387.2,68.2,2529.6,96.9,3317.2,180.5,390,2548.9,3337.2,207.6,80.2,28.9
0.363995,385.0,69.6,2527.4,103.0,3307.2,165.8,390.8,2543.3,3331.8,207.4,80.1,28
0.365995,381.9,71.0,2527.6,111.8,3299.3,162.2,391.6,2537.7,3326.3,207.2,80,27
0.367995,378.4,72.8,2530.1,124.0,3297.2,170.9,392.3,2532,3320.7,207,79.9,26.1
0.369995,374.5,75.0,2536.4,144.0,3303.4,198.7,392.8,2526.1,3315,206.8,79.8,25.3
0.371995,370.6,78.5,2549.7,170.6,3316.3,252.4,393.4,2520.2,3309.3,206.6,79.7,24.4
0.373995,367.6,85.3,2571.1,191.3,3327.4,321.0,393.8,2514.2,3303.5,206.3,79.6,23.6
0.375995,365.9,98.0,2596.8,196.0,3329.2,382.2,394.1,2508.1,3297.7,206.1,79.5,22.8
0.377995,366.3,116.1,2613.9,188.8,3320.5,403.9,394.4,2502,3291.8,205.8,79.4,22.2
0.379995,368.5,139.5,2619.0,182.5,3311.8,389.2,394.6,2495.9,3285.9,205.6,79.3,21.6
0.381995,370.4,162.4,2612.9,184.2,3311.4,357.8,394.7,2489.7,3280,205.3,79.3,21.2
0.383995,370.2,184.3,2593.8,189.2,3309.2,312.6,394.7,2483.4,3274.1,205,79.2,20.8
0.385995,369.3,205.7,2563.5,185.2,3297.5,260.1,394.7,2477.2,3268.3,204.7,79.2,20.5
0.387995,370.5,227.1,2532.7,170.3,3283.5,215.7,394.5,2470.9,3262.4,204.5,79.2,20.3
0.389995,374.3,249.0,2505.7,152.1,3271.9,181.0,394.3,2464.7,3256.6,204.2,79.2,20.1
0.391995,379.7,269.9,2486.1,137.6,3262.7,153.9,394.1,2458.4,3250.8,203.9,79.2,20.1
0.393995,388.2,293.5,2473.2,128.1,3252.6,129.0,393.7,2452.2,3245,203.5,79.2,20
0.395995,400.8,317.1,2468.1,126.1,3242.1,110.1,393.4,2446,3239.3,203.2,79.2,20
0.397995,412.0,335.0,2470.3,133.6,3233.3,101.0,392.9,2439.9,3233.7,202.9,79.2,20
0.399995,413.9,350.1,2478.4,151.3,3225.5,100.3,392.4,2433.8,3228.2,202.6,79.2,20
0.401995,402.5,361.3,2488.3,175.4,3220.2,104.9,391.8,2427.8,3222.7,202.3,79.2,19.9
0.403995,382.8,359.9,2495.0,200.7,3218.8,110.7,391.2,2421.9,3217.3,201.9,79.2,19.9
0.405995,363.2,342.6,2496.0,226.4,3220.3,115.0,390.5,2416,3212.1,201.6,79.1,19.9
0.407995,351.2,321.7,2488.6,243.2,3220.5,113.5,389.8,2410.2,3206.9,201.3,79.1,19.9
0.409995,347.1,308.2,2471.4,237.4,3216.1,103.8,389.1,2404.5,3201.9,201,79.1,19.9
0.411995,352.7,309.8,2450.4,205.6,3207.2,89.9,388.3,2399,3197,200.6,79.1,19.9
0.413995,367.2,319.0,2433.9,170.1,3196.4,80.2,387.5,2393.5,3192.2,200.3,79,19.9
0.415995,385.4,322.0,2423.4,145.3,3184.3,78.8,386.7,2388.2,3187.5,200,79,20
0.417995,400.7,316.5,2419.5,135.2,3172.3,86.7,385.8,2383,3183,199.6,78.9,20
0.419995,413.5,306.0,2422.3,138.7,3160.3,105.7,385,2377.9,3178.6,199.3,78.8,20.1
0.421995,422.3,294.8,2433.4,160.7,3149.7,138.0,384.1,2373,3174.3,199,78.6,20.1
0.423995,428.9,285.4,2449.8,203.0,3140.6,177.3,383.2,2368.3,3170.2,198.7,78.4,20.2
0.425995,435.0,277.5,2457.1,258.7,3131.0,204.5,382.3,2363.7,3166.3,198.4,78.2,20.1
0.427995,438.4,271.5,2430.5,279.9,3125.1,198.7,381.5,2359.3,3162.5,198.1,78,19.9
0.429995,441.7,264.7,2383.9,233.6,3127.7,179.1,380.6,2355,3158.9,197.8,77.7,19.5
0.431995,444.5,259.6,2353.5,174.7,3132.4,165.8,379.7,2351,3155.5,197.5,77.4,19.1
0.433995,441.2,258.1,2338.0,142.3,3130.2,152.8,378.9,2347.1,3152.2,197.3,77,18.6
0.435995,429.3,257.0,2326.4,130.3,3119.2,136.3,378.1,2343.4,3149.1,197,76.5,17.9
0.437995,411.7,251.2,2315.4,131.7,3105.2,124.9,377.3,2339.9,3146.2,196.8,76,17.3
0.439995,389.8,235.6,2305.3,143.4,3093.1,127.2,376.6,2336.6,3143.5,196.6,75.5,16.5
0.441995,370.3,208.8,2299.6,162.4,3087.3,149.2,375.8,2333.5,3140.9,196.4,74.9,15.6
0.443995,359.0,180.2,2297.5,180.1,3089.8,185.1,375.2,2330.7,3138.5,196.2,74.2,14.6
0.445995,354.5,154.6,2292.7,187.2,3102.0,217.1,374.5,2328,3136.4,196,73.5,13.6
0.447995,354.8,135.9,2281.2,178.0,3118.7,220.6,373.9,2325.6,3134.3,195.8,72.7,12.6
0.449995,358.0,123.2,2266.3,156.5,3131.5,204.5,373.4,2323.4,3132.5,195.7,71.8,11.2
0.451995,361.9,117.3,2254.1,135.3,3136.2,195.6,372.9,2321.4,3130.9,195.5,70.8,9.8
0.453995,364.3,118.5,2243.8,123.2,3138.0,204.3,372.4,2319.6,3129.5,195.4,69.7,8.5
0.455995,364.9,128.4,2231.2,117.2,3146.6,214.0,372,2318.1,3128.2,195.3,68.7,7.5
0.457995,361.5,144.2,2218.1,112.0,3162.4,196.1,371.7,2316.8,3127.1,195.2,67.9,7
0.459995,352.7,156.3,2210.2,106.9,3172.0,163.2,371.4,2315.7,3126.3,195.1,67.5,6.8
0.461995,342.9,156.7,2214.9,105.8,3170.7,147.6,371.2,2314.9,3125.6,195,67.4,6.9
0.463995,336.3,151.5,2233.3,108.7,3166.3,155.3,371,2314.3,3125.1,194.9,67.6,7.2
0.465995,334.5,148.1,2261.3,110.2,3166.0,177.4,370.9,2313.9,3124.8,194.9,68,7.8
0.467995,340.8,150.6,2283.9,106.9,3172.0,192.5,370.9,2313.8,3124.7,194.8,68.2,8.7
