time,f1,b1,f2,b2,f3,b3,f1p,f2p,f3p,f0,intensity,harmonicity
0.025698,368.0,106.7,2391.6,681.1,3214.6,603.3,368.3,2382.9,3144.1,200,72.5,6.4
0.027698,374.3,63.9,2322.5,573.8,3170.6,508.8,371.2,2381.6,3145.2,199.8,73.6,7.4
0.029698,381.2,42.8,2300.0,505.4,3125.8,468.1,375.8,2379.5,3146.9,199.6,74.8,8.5
0.031698,388.3,34.0,2317.1,465.8,3107.0,491.9,382.2,2376.7,3149.2,199.3,75.8,9.7
0.033698,394.2,32.4,2360.6,431.9,3126.7,551.9,390.2,2373.1,3152.1,199.1,76.6,10.7
0.035698,399.7,34.4,2402.6,386.7,3161.3,579.4,399.6,2368.8,3155.4,198.8,77.2,11.5
0.037698,405.1,39.1,2421.7,340.6,3176.2,537.8,410.2,2363.9,3159.1,198.5,77.6,11.9
0.039698,411.9,47.1,2417.2,295.0,3169.5,440.0,421.8,2358.4,3163.1,198.2,77.8,11.8
0.041698,421.5,60.3,2397.9,258.4,3158.0,327.7,434.2,2352.5,3167.1,197.9,77.8,11.1
0.043698,433.6,78.5,2377.7,241.7,3154.7,243.0,447.1,2346.2,3171.2,197.5,77.6,10.3
0.045698,449.3,104.9,2361.6,239.0,3157.9,183.7,460.3,2339.7,3175.3,197.2,77.3,9.5
0.047698,468.0,136.2,2351.5,240.8,3164.3,148.0,473.5,2332.9,3179.1,196.8,76.9,9
0.049698,489.6,161.2,2342.4,240.1,3173.0,125.8,486.5,2326.1,3182.6,196.4,76.5,8.7
0.051698,510.3,164.4,2328.4,231.1,3182.9,111.2,499.1,2319.3,3185.7,196,76.2,8.6
0.053698,524.9,151.4,2310.7,211.0,3191.2,102.2,511.1,2312.5,3188.4,195.6,76,8.6
0.055698,535.5,134.1,2292.9,182.6,3197.3,96.2,522.3,2306,3190.6,195.3,75.9,8.8
0.057698,542.7,117.5,2279.2,158.1,3200.6,92.2,532.6,2299.7,3192.1,194.9,76,9.2
0.059698,548.1,102.4,2269.1,139.1,3202.1,86.4,541.8,2293.7,3193.1,194.5,76.1,9.9
0.061698,553.4,89.8,2262.9,122.2,3202.8,76.1,550,2288.1,3193.6,194.2,76.2,11
0.063698,558.5,79.9,2261.4,109.2,3202.4,65.6,557.1,2282.9,3193.4,193.9,76.2,12.2
0.065698,563.4,70.5,2263.3,99.6,3199.9,58.2,563,2278.2,3192.7,193.6,76.3,13.3
0.067698,567.1,61.5,2266.8,93.4,3195.3,56.2,567.8,2273.9,3191.4,193.3,76.4,14.2
0.069698,569.4,52.7,2270.9,89.4,3189.4,59.2,571.5,2270.2,3189.7,193,76.5,14.7
0.071698,570.7,44.6,2275.1,86.0,3182.9,66.3,574.3,2266.9,3187.5,192.8,76.6,15
0.073698,571.5,38.3,2278.7,83.1,3177.3,75.3,576.3,2264.1,3185.1,192.6,76.7,15.3
0.075698,572.1,33.0,2280.5,82.9,3173.2,88.4,577.5,2261.7,3182.3,192.4,76.8,15.5
0.077698,572.3,28.8,2279.5,87.6,3170.3,109.3,578.1,2259.7,3179.2,192.2,77,16
0.079698,572.6,25.3,2275.4,96.0,3165.6,137.8,578.2,2258,3176,192.1,77.1,16.7
0.081698,573.4,22.3,2267.6,102.9,3155.2,160.6,578.1,2256.5,3172.6,192,77.2,17.5
0.083698,574.6,20.0,2258.3,105.6,3145.9,165.6,577.8,2255.3,3169.1,191.9,77.3,18.4
0.085698,575.9,18.1,2249.0,105.2,3144.8,159.2,577.4,2254.1,3165.6,191.8,77.4,19.3
0.087698,577.2,16.7,2240.9,101.8,3151.3,147.2,577.2,2252.9,3161.9,191.7,77.6,20
0.089698,578.3,15.5,2233.4,96.5,3161.1,132.4,577.1,2251.6,3158.1,191.7,77.7,20.7
0.091698,579.2,14.6,2226.2,90.6,3171.3,118.9,577.3,2250.2,3154.2,191.6,77.8,21.3
0.093698,579.9,14.0,2220.4,86.0,3179.8,112.1,577.8,2248.5,3150.2,191.6,77.9,21.8
0.095698,580.6,13.5,2217.2,81.5,3186.1,113.1,578.6,2246.4,3145.9,191.5,78,22.2
0.097698,581.5,13.4,2218.1,77.1,3189.1,121.9,579.8,2243.8,3141.4,191.5,78.1,22.4
0.099698,582.5,13.5,2222.6,73.9,3187.9,140.3,581.4,2240.7,3136.5,191.4,78.1,22.3
0.101698,583.4,13.9,2229.6,73.3,3179.6,171.5,583.3,2237,3131.3,191.4,78.1,22.1
0.103698,584.4,14.7,2236.3,75.8,3161.4,209.1,585.4,2232.7,3125.7,191.3,78.1,21.6
0.105698,585.8,15.9,2241.5,80.1,3131.3,241.0,587.7,2227.7,3119.5,191.3,77.9,21
0.107698,587.8,17.8,2243.3,84.0,3097.8,257.8,590.1,2222,3112.8,191.2,77.7,20.1
0.109698,590.6,20.4,2241.7,87.3,3068.7,274.0,592.5,2215.6,3105.5,191.1,77.3,18.7
0.111698,593.9,24.5,2237.6,90.8,3046.4,303.5,594.7,2208.4,3097.7,191,76.9,16.8
0.113698,597.5,31.3,2231.7,93.8,3028.7,342.8,596.7,2200.6,3089.3,190.8,76.4,14.8
0.115698,601.8,42.6,2223.5,97.7,3011.6,385.4,598.4,2192.1,3080.4,190.7,75.8,13.2
0.117698,605.5,58.0,2213.1,103.7,3001.3,416.6,599.6,2183,3071,190.5,75.2,12.3
0.119698,607.6,75.4,2200.2,111.8,3005.0,428.3,600.4,2173.4,3061.3,190.4,74.7,12.3
0.121698,607.8,90.9,2183.6,121.4,3022.2,414.1,600.5,2163.4,3051.2,190.2,74.3,12.9
0.123698,606.2,99.6,2164.2,131.7,3039.0,379.9,600,2152.9,3041.1,190,74.1,14
0.125698,603.0,101.2,2141.5,142.4,3044.8,339.6,598.8,2142.3,3031,189.8,74,15.2
0.127698,599.1,96.0,2118.6,149.7,3036.8,304.5,596.9,2131.4,3021.2,189.6,74,16.2
0.129698,595.0,86.4,2095.8,150.7,3023.8,269.8,594.3,2120.6,3011.7,189.4,74.1,17.3
0.131698,590.2,74.8,2076.3,146.2,3017.7,233.9,591.1,2109.9,3003,189.2,74.2,18.6
0.133698,584.7,64.7,2064.7,141.6,3022.3,209.5,587.2,2099.3,2995.1,188.9,74.3,19.9
0.135698,578.4,56.5,2060.0,138.7,3033.1,203.1,582.8,2089.1,2988.3,188.7,74.4,20.8
0.137698,572.2,50.3,2060.1,138.2,3046.8,217.3,578,2079.4,2982.8,188.5,74.4,21.2
0.139698,566.3,45.2,2060.7,140.4,3061.0,249.3,572.7,2070.2,2978.8,188.3,74.5,20.9
0.141698,560.6,40.4,2057.2,144.1,3067.9,292.0,567.3,2061.6,2976.5,188.1,74.4,20.2
0.143698,555.5,36.7,2048.7,148.0,3057.1,332.7,561.6,2053.7,2976.1,187.8,74.2,19.1
0.145698,550.4,34.2,2035.8,153.8,3025.7,367.9,556,2046.7,2977.6,187.6,73.9,17.6
0.147698,545.7,33.4,2022.4,161.9,2985.0,387.8,550.4,2040.5,2981.1,187.4,73.4,15.9
0.149698,541.0,34.9,2010.9,174.7,2946.9,390.0,545,2035.1,2986.8,187.2,72.8,13.5
0.151698,535.5,40.0,2003.1,197.2,2918.7,374.4,539.8,2030.7,2994.5,187.1,72.1,10.4
0.153698,529.8,51.2,2001.3,231.4,2905.0,350.6,535.1,2027.1,3004.2,186.9,71.2,7.1
0.155698,523.9,74.0,2004.9,290.8,2905.4,346.2,530.8,2024.5,3015.9,186.7,70.3,4.4
0.157698,517.7,109.6,2012.8,394.1,2925.2,404.1,526.9,2022.7,3029.3,186.5,69.6,2.8
0.159698,514.2,153.4,2031.4,514.9,2968.5,525.8,523.6,2021.7,3044.4,186.4,69.3,2.5
0.161698,521.2,189.6,2068.4,542.0,3036.7,645.8,520.9,2021.4,3060.7,186.2,69.3,3
0.163698,532.5,205.1,2102.3,482.5,3106.4,705.4,518.7,2021.7,3078.1,186.1,69.7,4.2
0.165698,537.2,212.7,2118.1,418.5,3155.7,703.3,517,2022.7,3096.3,186,70.2,5.7
0.167698,535.2,222.6,2113.3,384.0,3169.0,638.1,515.8,2024.1,3114.8,185.8,70.8,7.5
0.169698,531.9,231.4,2094.2,366.1,3168.9,535.6,515.1,2025.8,3133.4,185.7,71.2,9.7
0.171698,531.4,228.0,2063.1,344.7,3174.9,432.0,514.7,2027.8,3151.6,185.5,71.6,12.5
0.173698,532.6,207.2,2025.8,313.4,3188.2,354.1,514.7,2030,3169.2,185.4,72,15.5
0.175698,531.5,178.0,1988.7,282.1,3204.9,302.7,514.9,2032.2,3185.7,185.3,72.2,18.2
0.177698,527.8,158.5,1966.9,268.7,3218.4,287.2,515.2,2034.4,3200.8,185.2,72.4,20.2
0.179698,523.3,153.2,1966.8,270.3,3227.3,301.9,515.7,2036.3,3214.2,185,72.5,21.4
0.181698,518.3,158.3,1982.9,272.2,3232.5,333.6,516.2,2038.1,3225.5,184.9,72.6,22
0.183698,512.7,169.0,2000.4,273.5,3231.8,370.9,516.6,2039.5,3234.6,184.8,72.5,22.3
0.185698,504.5,187.8,2018.4,290.5,3224.5,423.8,517,2040.6,3241.3,184.7,72.4,22.2
0.187698,492.1,220.5,2044.6,334.2,3220.8,499.1,517.2,2041.3,3245.3,184.6,72.2,22
0.189698,470.1,277.2,2090.4,401.4,3240.0,600.1,517.3,2041.5,3246.7,184.5,71.9,21.2
